1576447710.00
64.000000
-0.00
-0.00
-0.00
-0.00
-0.00
-0.00
-0.00
-0.00
-0.00
-0.00
0.00
0.01
0.01
-0.00
-0.03
-0.05
-0.05
0.00
0.13
0.36
0.66
1.01
1.37
1.72
2.06
2.40
2.79
3.24
3.80
4.42
5.06
5.66
6.20
6.68
7.15
7.68
8.31
9.14
10.09
11.04
11.88
12.56
13.14
13.76
14.65
15.96
17.91
20.32
22.90
25.38
27.58
29.57
31.68
34.32
37.81
42.54
48.15
54.10
59.83
64.97
69.59
74.15
79.35
85.70
93.76
102.99
112.62
121.75
129.81
136.80
143.33
150.70
157.62
166.34
177.51
191.24
206.35
219.94
227.63
224.74
207.87
176.12
131.89
79.06
22.00
-36.03
-93.49
-150.17
-206.26
-261.53
-315.16
-365.62
-411.89
-453.17
-488.81
-517.97
-539.38
-551.45
-552.57
-541.67
-518.42
-483.77
-439.60
-388.41
-332.88
-275.54
-218.45
-163.18
-110.82
-62.02
-17.33
22.85
58.12
88.13
112.58
131.36
144.69
153.15
157.67
159.29
158.97
157.36
154.70
150.90
145.71
138.87
130.15
119.45
106.96
93.63
81.31
72.59
69.99
74.85
86.45
101.99
117.45
129.06
134.65
134.07
128.66
120.27
110.35
99.64
88.48
77.42
67.02
57.98
50.80
45.43
41.36
37.78
33.95
29.55
24.72
19.92
15.79
12.76
10.91
9.92
9.22
8.24
6.68
4.61
2.37
0.42
-0.96
-1.76
-2.20
-2.62
-3.24
-4.07
-4.89
-5.40
-5.32
-4.52
-2.97
-0.78
1.80
4.33
6.27
7.06
6.39
4.35
1.44
-1.63
-4.22
-5.97
-6.91
-7.25
-7.25
-7.03
-6.56
-5.84
-4.99
-4.20
-3.70
-3.56
-3.69
-3.92
-4.06
-4.00
-3.77
-3.47
-3.20
-3.06
-3.05
-3.11
-3.14
-3.01
-2.64
-2.00
-1.08
0.09
1.47
3.02
4.69
6.30
7.65
8.52
8.76
8.38
7.55
6.51
5.49
4.66
4.11
3.90
4.08
4.64
5.56
6.70
7.85
8.69
8.92
8.31
6.85
4.77
2.33
-0.14
-2.35
-4.21
-5.76
-7.10
-8.37
-9.57
-10.68
-11.61
-12.27
-12.59
-12.46
-11.75
-10.35
-8.31
-5.87
-3.46
-1.62
-0.71
-0.83
-1.78
-3.06
-4.21
-4.93
-5.19
-5.18
-5.19
-5.36
-5.65
-5.84
-5.70
-5.12
-4.19
-3.16
-2.31
-1.83
-1.70
-1.74
-1.73
-1.52
-1.11
-0.61
-0.22
-0.07
-0.24
-0.65
-1.18
-1.74
-2.25
-2.67
-2.89
-2.75
-2.04
-0.56
1.77
4.83
8.23
11.52
14.21
16.03
16.87
16.87
16.02
14.49
12.45
10.09
7.60
5.16
2.97
1.16
-0.23
-1.27
-2.10
-2.88
-3.73
-4.65
-5.54
-6.26
-6.73
-6.92
-6.93
-6.88
-6.91
-7.13
-7.59
-8.38
-9.54
-11.13
-13.11
-15.25
-17.11
-18.12
-17.72
-15.59
-11.75
-6.61
-0.84
4.84
9.86
13.84
16.64
18.25
18.76
18.29
17.01
15.12
12.84
10.43
8.11
6.07
4.43
3.21
2.33
1.64
0.97
0.18
-0.80
-1.91
-3.03
-4.05
-4.89
-5.57
-6.21
-6.91
-7.83
-9.04
-10.63
-12.58
-14.75
-16.85
-18.41
-18.85
-17.64
-14.52
-9.63
-3.52
2.99
9.03
13.95
17.38
19.28
19.82
19.28
17.96
16.15
14.09
11.97
9.91
7.97
6.17
4.55
3.15
2.02
1.15
0.45
-0.19
-0.86
-1.58
-2.30
-2.95
-3.55
-4.19
-5.03
-6.25
-7.94
-10.08
-12.55
-15.14
-17.49
-19.17
-19.70
-18.68
-15.92
-11.56
-6.04
-0.02
5.87
11.09
15.29
18.29
20.02
20.50
19.87
18.33
16.19
13.77
11.36
9.13
7.14
5.41
3.90
2.60
1.48
0.54
-0.27
-0.98
-1.64
-2.27
-2.94
-3.70
-4.64
-5.81
-7.22
-8.86
-10.69
-12.71
-14.91
-17.20
-19.34
-20.88
-21.27
-20.01
-16.85
-12.00
-6.07
0.10
5.74
10.31
13.66
15.87
17.12
17.54
17.16
15.98
14.08
11.70
9.20
6.95
5.21
4.01
3.22
2.58
1.84
0.88
-0.33
-1.72
-3.17
-4.58
-5.85
-6.96
-7.93
-8.88
-9.90
-11.10
-12.55
-14.23
-16.07
-17.88
-19.35
-20.08
-19.59
-17.49
-13.64
-8.28
-1.97
4.47
10.27
14.93
18.21
20.17
20.94
20.67
19.47
17.52
15.08
12.54
10.23
8.39
7.04
6.01
5.09
4.09
2.98
1.79
0.60
-0.60
-1.83
-3.11
-4.40
-5.57
-6.53
-7.29
-8.02
-9.02
-10.61
-12.92
-15.74
-18.59
-20.76
-21.58
-20.58
-17.65
-13.00
-7.12
-0.64
5.80
11.62
16.39
19.83
21.85
22.52
22.01
20.55
18.41
15.82
13.02
10.22
7.64
5.44
3.69
2.36
1.34
0.47
-0.39
-1.32
-2.35
-3.49
-4.68
-5.90
-7.09
-8.22
-9.29
-10.33
-11.47
-12.84
-14.56
-16.60
-18.73
-20.53
-21.39
-20.79
-18.34
-14.02
-8.18
-1.48
5.25
11.26
15.99
19.17
20.81
21.08
20.27
18.64
16.47
14.03
11.59
9.37
7.54
6.16
5.17
4.45
3.83
3.17
2.33
1.26
-0.05
-1.50
-2.98
-4.36
-5.58
-6.63
-7.59
-8.58
-9.75
-11.24
-13.16
-15.50
-18.09
-20.48
-22.06
-22.18
-20.37
-16.59
-11.22
-4.93
1.51
7.44
12.41
16.17
18.63
19.80
19.82
18.89
17.29
15.28
13.07
10.76
8.44
6.24
4.31
2.82
1.87
1.34
0.98
0.45
-0.49
-1.90
-3.60
-5.29
-6.65
-7.55
-8.05
-8.39
-8.90
-9.85
-11.41
-13.47
-15.76
-17.80
-19.04
-18.96
-17.19
-13.65
-8.60
-2.56
3.75
9.63
14.52
18.09
20.21
20.97
20.53
19.14
17.06
14.55
11.88
9.29
6.95
4.95
3.33
2.02
0.96
0.04
-0.83
-1.72
-2.66
-3.67
-4.72
-5.82
-6.94
-8.03
-9.08
-10.07
-11.08
-12.22
-13.62
-15.34
-17.27
-19.08
-20.29
-20.39
-18.98
-15.94
-11.46
-5.98
-0.09
5.59
10.57
14.55
17.38
19.08
19.77
19.61
18.77
17.42
15.72
13.80
11.80
9.84
8.04
6.46
5.15
4.09
3.19
2.33
1.41
0.40
-0.67
-1.74
-2.73
-3.64
-4.51
-5.47
-6.66
-8.22
-10.20
-12.60
-15.30
-18.03
-20.38
-21.86
-21.94
-20.26
-16.72
-11.58
-5.36
1.22
7.43
12.65
16.51
18.86
19.74
19.37
18.07
16.15
13.94
11.70
9.61
7.81
6.34
5.18
4.22
3.34
2.41
1.36
0.16
-1.13
-2.40
-3.58
-4.61
-5.50
-6.27
-7.01
-7.79
-8.72
-9.96
-11.64
-13.81
-16.35
-18.91
-20.91
-21.70
-20.75
-17.85
-13.19
-7.33
-1.04
4.93
10.01
13.93
16.66
18.27
18.86
18.51
17.28
15.33
12.95
10.50
8.31
6.61
5.43
4.63
3.98
3.29
2.45
1.48
0.43
-0.60
-1.57
-2.44
-3.26
-4.08
-4.97
-6.01
-7.24
-8.70
-10.46
-12.57
-15.00
-17.53
-19.66
-20.70
-20.00
-17.20
-12.43
-6.27
0.42
6.84
12.40
16.84
20.09
22.17
23.07
22.84
21.62
19.73
17.58
15.56
13.90
12.66
11.70
10.82
9.85
8.73
7.50
6.23
4.99
3.79
2.61
1.46
0.40
-0.46
-1.05
-1.41
-1.69
-2.06
-2.65
-3.46
-4.41
-5.43
-6.51
-7.71
-9.03
-10.38
-11.56
-12.36
-12.71
-12.74
-12.67
-12.75
-13.05
-13.49
-13.90
-14.14
-14.20
-14.13
-14.06
-14.04
-14.10
-14.19
-14.25
-14.27
-14.23
-14.20
-14.24
-14.45
-14.90
-15.57
-16.41
-17.28
-18.02
-18.49
-18.68
-18.68
-18.73
-19.08
-19.97
-21.46
-23.36
-25.26
-26.57
-26.67
-25.10
-21.65
-16.44
-9.88
-2.57
4.82
11.70
17.59
22.17
25.30
26.98
27.36
26.75
25.53
24.08
22.68
21.44
20.33
19.22
18.01
16.66
15.23
13.76
12.28
10.77
9.23
7.70
6.28
5.05
4.04
3.14
2.17
0.90
-0.83
-3.09
-5.84
-8.92
-11.98
-14.55
-16.02
-15.84
-13.69
-9.64
-4.17
2.01
8.10
13.47
17.75
20.80
22.66
23.42
23.23
22.27
20.78
19.00
17.13
15.33
13.62
12.00
10.41
8.79
7.12
5.38
3.58
1.80
0.12
-1.37
-2.61
-3.65
-4.67
-5.91
-7.60
-9.91
-12.85
-16.22
-19.63
-22.50
-24.17
-24.06
-21.85
-17.58
-11.69
-4.91
1.96
8.25
13.56
17.74
20.81
22.83
23.82
23.79
22.76
20.89
18.41
15.67
12.98
10.56
8.52
6.80
5.33
3.96
2.60
1.21
-0.23
-1.67
-3.11
-4.51
-5.94
-7.49
-9.27
-11.44
-14.07
-17.15
-20.50
-23.67
-26.06
-26.93
-25.68
-22.06
-16.26
-8.93
-0.99
6.69
13.45
18.89
22.85
25.28
26.23
25.77
24.15
21.70
18.86
16.03
13.51
11.43
9.74
8.32
6.94
5.44
3.71
1.77
-0.23
-2.12
-3.76
-5.16
-6.46
-7.88
-9.59
-11.69
-14.20
-17.12
-20.33
-23.61
-26.52
-28.40
-28.51
-26.30
-21.61
-14.84
-6.81
1.42
8.95
15.17
19.83
22.95
24.66
25.08
24.35
22.63
20.18
17.36
14.55
12.08
10.12
8.62
7.36
6.05
4.44
2.46
0.24
-2.01
-4.06
-5.80
-7.28
-8.68
-10.25
-12.20
-14.69
-17.78
-21.45
-25.51
-29.55
-32.95
-34.86
-34.50
-31.39
-25.57
-17.64
-8.64
0.31
8.33
14.94
20.06
23.87
26.58
28.30
29.09
28.96
28.05
26.58
24.85
23.13
21.58
20.16
18.75
17.16
15.27
13.12
10.87
8.72
6.80
5.07
3.32
1.28
-1.23
-4.24
-7.63
-11.23
-14.88
-18.45
-21.74
-24.41
-25.92
-25.69
-23.28
-18.61
-12.03
-4.27
3.72
11.08
17.15
21.56
24.20
25.20
24.78
23.25
20.96
18.22
15.33
12.54
10.04
7.98
6.37
5.17
4.20
3.27
2.23
1.03
-0.27
-1.53
-2.64
-3.63
-4.62
-5.80
-7.30
-9.20
-11.49
-14.11
-16.98
-19.97
-22.81
-25.01
-25.92
-24.90
-21.56
-15.99
-8.76
-0.83
6.79
13.29
18.22
21.49
23.21
23.57
22.75
20.94
18.41
15.49
12.59
10.05
8.05
6.56
5.38
4.27
3.03
1.63
0.14
-1.28
-2.52
-3.54
-4.46
-5.44
-6.64
-8.18
-10.09
-12.38
-15.03
-17.99
-21.08
-23.89
-25.83
-26.18
-24.32
-20.01
-13.49
-5.50
2.97
10.88
17.43
22.17
25.03
26.21
26.07
25.02
23.45
21.63
19.80
18.11
16.64
15.42
14.40
13.47
12.50
11.43
10.27
9.19
8.37
7.98
8.04
8.39
8.74
8.81
8.42
7.57
6.44
5.29
4.38
3.84
3.70
3.86
4.16
4.43
4.54
4.38
3.89
3.08
2.00
0.73
-0.64
-2.06
-3.48
-4.88
-6.21
-7.41
-8.45
-9.32
-10.05
-10.70
-11.29
-11.82
-12.30
-12.76
-13.30
-14.04
-15.05
-16.32
-17.74
-19.13
-20.38
-21.45
-22.41
-23.35
-24.39
-25.63
-27.15
-29.03
-31.21
-33.43
-35.15
-35.69
-34.35
-30.74
-24.87
-17.22
-8.58
0.19
8.31
15.21
20.51
24.05
25.86
26.11
25.11
23.23
20.87
18.36
15.93
13.72
11.76
10.04
8.49
7.05
5.64
4.22
2.79
1.35
-0.04
-1.39
-2.70
-4.05
-5.54
-7.28
-9.38
-11.91
-14.82
-17.95
-20.90
-23.10
-23.82
-22.47
-18.73
-12.77
-5.28
2.77
10.40
16.85
21.74
25.01
26.79
27.29
26.66
25.09
22.79
20.05
17.18
14.49
12.17
10.32
8.87
7.68
6.54
5.28
3.80
2.15
0.42
-1.25
-2.76
-4.08
-5.28
-6.52
-8.00
-9.96
-12.57
-15.79
-19.32
-22.57
-24.77
-25.16
-23.22
-18.86
-12.40
-4.54
3.84
11.80
18.56
23.59
26.66
27.84
27.40
25.74
23.24
20.21
16.95
13.70
10.68
8.07
5.96
4.29
2.93
1.71
0.52
-0.68
-1.83
-2.88
-3.82
-4.71
-5.65
-6.75
-8.11
-9.79
-11.86
-14.33
-17.17
-20.19
-23.03
-25.14
-25.95
-24.94
-21.89
-16.95
-10.65
-3.75
2.88
8.57
12.88
15.66
16.99
17.05
16.06
14.29
12.01
9.50
7.03
4.76
2.77
1.07
-0.34
-1.45
-2.27
-2.83
-3.26
-3.70
-4.28
-5.07
-6.02
-7.09
-8.22
-9.47
-10.99
-12.94
-15.44
-18.41
-21.54
-24.29
-26.01
-26.09
-24.14
-20.11
-14.27
-7.18
0.48
7.98
14.67
20.02
23.65
25.41
25.37
23.83
21.26
18.18
15.05
12.25
9.96
8.23
6.99
6.07
5.23
4.24
2.95
1.33
-0.53
-2.43
-4.15
-5.61
-6.83
-8.00
-9.36
-11.15
-13.49
-16.39
-19.69
-23.04
-25.90
-27.66
-27.69
-25.56
-21.17
-14.80
-7.09
1.11
8.91
15.62
20.76
24.16
25.87
26.05
24.95
22.86
20.15
17.18
14.35
11.93
10.06
8.66
7.49
6.26
4.75
2.90
0.83
-1.28
-3.20
-4.77
-5.95
-6.79
-7.47
-8.22
-9.37
-11.19
-13.84
-17.23
-20.98
-24.35
-26.47
-26.45
-23.72
-18.20
-10.43
-1.39
7.74
15.91
22.47
27.17
30.11
31.55
31.70
30.70
28.69
25.90
22.67
19.45
16.61
14.33
12.60
11.22
9.91
8.46
6.78
4.90
2.94
1.00
-0.84
-2.58
-4.31
-6.06
-7.90
-9.86
-12.05
-14.61
-17.65
-21.09
-24.54
-27.20
-28.11
-26.44
-21.89
-14.85
-6.33
2.36
10.07
16.12
20.35
22.97
24.29
24.51
23.77
22.20
20.10
17.85
15.85
14.33
13.26
12.39
11.45
10.29
8.97
7.67
6.59
5.85
5.41
5.18
5.00
4.79
4.44
3.89
3.11
2.09
0.88
-0.43
-1.75
-3.00
-4.13
-5.13
-5.99
-6.71
-7.25
-7.58
-7.73
-7.77
-7.83
-8.06
-8.53
-9.20
-9.96
-10.62
-11.07
-11.28
-11.35
-11.45
-11.72
-12.22
-12.85
-13.48
-13.97
-14.24
-14.34
-14.39
-14.53
-14.88
-15.46
-16.20
-16.98
-17.69
-18.31
-18.86
-19.45
-20.20
-21.22
-22.59
-24.32
-26.25
-27.89
-28.51
-27.22
-23.33
-16.69
-7.90
1.85
11.15
18.86
24.36
27.65
29.06
29.03
27.88
25.79
22.95
19.62
16.15
12.91
10.21
8.19
6.82
5.94
5.23
4.37
3.13
1.46
-0.45
-2.33
-3.93
-5.18
-6.23
-7.36
-8.87
-10.91
-13.52
-16.60
-19.96
-23.22
-25.79
-26.90
-25.76
-21.94
-15.55
-7.31
1.62
10.04
17.07
22.30
25.70
27.47
27.84
26.99
25.09
22.39
19.24
16.05
13.16
10.78
8.94
7.47
6.12
4.63
2.84
0.73
-1.53
-3.71
-5.58
-7.03
-8.16
-9.24
-10.59
-12.49
-15.04
-18.16
-21.59
-24.89
-27.49
-28.71
-27.88
-24.54
-18.64
-10.70
-1.70
7.20
14.97
20.98
25.03
27.31
28.09
27.63
26.12
23.73
20.73
17.47
14.34
11.63
9.48
7.79
6.33
4.82
3.11
1.18
-0.84
-2.73
-4.35
-5.64
-6.72
-7.76
-8.93
-10.37
-12.20
-14.48
-17.23
-20.35
-23.47
-25.96
-26.97
-25.75
-21.87
-15.44
-7.16
1.93
10.67
18.16
23.84
27.55
29.39
29.59
28.47
26.35
23.60
20.67
17.99
15.94
14.66
14.03
13.72
13.33
12.61
11.52
10.28
9.18
8.42
8.02
7.80
7.46
6.82
5.80
4.51
3.12
1.80
0.67
-0.28
-1.08
-1.83
-2.61
-3.46
-4.37
-5.28
-6.12
-6.85
-7.43
-7.89
-8.25
-8.57
-8.91
-9.31
-9.79
-10.33
-10.93
-11.54
-12.12
-12.67
-13.16
-13.57
-13.87
-14.05
-14.16
-14.31
-14.63
-15.25
-16.19
-17.31
-18.42
-19.35
-20.05
-20.65
-21.38
-22.48
-24.14
-26.36
-28.94
-31.35
-32.80
-32.33
-29.10
-22.79
-13.81
-3.28
7.30
16.55
23.63
28.36
31.04
32.16
32.06
30.90
28.76
25.79
22.32
18.80
15.67
13.21
11.46
10.22
9.16
7.92
6.30
4.31
2.19
0.25
-1.29
-2.44
-3.43
-4.60
-6.26
-8.58
-11.55
-15.06
-18.87
-22.60
-25.66
-27.25
-26.59
-23.15
-16.93
-8.60
0.74
9.83
17.67
23.70
27.82
30.18
30.95
30.31
28.39
25.42
21.75
17.88
14.27
11.27
9.00
7.36
6.08
4.88
3.54
1.95
0.16
-1.69
-3.45
-5.04
-6.49
-8.00
-9.81
-12.14
-15.12
-18.65
-22.47
-26.06
-28.72
-29.64
-28.13
-23.87
-17.07
-8.50
0.73
9.46
16.86
22.54
26.47
28.76
29.54
28.88
26.86
23.74
19.97
16.11
12.66
9.87
7.75
6.04
4.42
2.67
0.71
-1.38
-3.42
-5.25
-6.79
-8.06
-9.21
-10.40
-11.86
-13.75
-16.23
-19.36
-23.04
-26.97
-30.51
-32.81
-32.97
-30.31
-24.65
-16.45
-6.71
3.31
12.39
19.69
24.84
27.90
29.16
28.96
27.62
25.41
22.62
19.55
16.52
13.72
11.30
9.21
7.38
5.67
3.97
2.24
0.45
-1.35
-3.11
-4.80
-6.42
-8.05
-9.82
-11.90
-14.47
-17.68
-21.57
-25.91
-30.11
-33.27
-34.29
-32.26
-26.77
-18.16
-7.52
3.73
14.15
22.75
29.10
33.28
35.57
36.28
35.67
33.93
31.26
27.94
24.32
20.75
17.48
14.66
12.27
10.21
8.31
6.40
4.33
2.01
-0.59
-3.43
-6.42
-9.48
-12.53
-15.59
-18.73
-22.09
-25.78
-29.92
-34.53
-39.41
-44.11
-47.91
-49.95
-49.53
-46.42
-41.05
-34.50
-28.16
-23.35
-21.03
-21.68
-25.36
-31.95
-41.20
-52.66
-65.58
-78.97
-91.77
-103.19
-113.00
-121.62
-129.91
-138.86
-149.17
-160.85
-173.26
-185.20
-195.34
-202.54
-206.31
-206.82
-205.02
-202.35
-200.41
-200.37
-202.36
-205.05
-205.84
-201.67
-190.13
-170.48
-143.90
-112.97
-80.49
-48.47
-17.77
11.54
39.44
65.37
88.32
107.35
122.19
133.38
142.04
149.25
155.54
160.87
164.88
167.34
168.44
168.84
169.23
170.00
170.93
171.22
169.82
165.87
159.10
149.87
139.07
127.67
116.48
105.87
95.81
85.97
75.98
65.57
54.71
43.71
33.15
23.91
17.02
13.41
13.74
18.12
26.00
36.30
47.60
58.53
68.05
75.62
81.13
84.76
86.72
87.16
86.21
84.07
81.07
77.71
74.48
71.69
69.44
67.51
65.54
63.18
60.21
56.67
52.72
48.59
44.50
40.59
36.97
33.70
30.85
28.38
26.13
23.87
21.31
18.38
15.29
12.57
10.91
10.88
12.72
16.17
20.63
25.32
29.52
32.71
34.63
35.19
34.40
32.36
29.18
25.06
20.25
15.03
9.72
4.59
-0.11
-4.21
-7.58
-10.21
-12.08
-13.22
-13.68
-13.59
-13.19
-12.83
-12.94
-13.85
-15.76
-18.65
-22.37
-26.75
-31.73
-37.38
-43.84
-51.14
-59.06
-66.99
-73.95
-78.77
-80.34
-77.91
-71.27
-60.85
-47.64
-32.98
-18.29
-4.84
6.50
15.30
21.63
25.94
28.93
31.37
33.94
37.10
41.05
45.79
51.20
57.09
63.29
69.62
75.82
81.49
86.00
88.52
88.19
84.30
76.57
65.21
50.95
34.85
18.03
1.47
-14.17
-28.57
-41.63
-53.42
-64.02
-73.42
-81.50
-88.04
-92.86
-95.83
-96.99
-96.49
-94.48
-91.08
-86.34
-80.33
-73.24
-65.43
-57.44
-49.84
-43.11
-37.45
-32.83
-28.95
-25.44
-21.94
-18.19
-14.09
-9.68
-5.11
-0.63
3.44
6.79
9.18
10.53
10.97
10.76
10.19
9.38
8.21
6.39
3.54
-0.51
-5.61
-11.17
-16.25
-19.76
-20.69
-18.45
-13.01
-5.01
4.46
14.09
22.75
29.74
34.83
38.18
40.11
40.92
40.89
40.23
39.16
37.91
36.64
35.37
33.98
32.27
30.11
27.52
24.72
21.95
19.43
17.22
15.26
13.40
11.48
9.40
7.09
4.52
1.68
-1.47
-4.93
-8.60
-12.28
-15.57
-17.92
-18.74
-17.55
-14.16
-8.76
-1.89
5.66
13.08
19.68
25.03
28.89
31.23
32.07
31.51
29.66
26.69
22.86
18.47
13.89
9.39
5.18
1.34
-2.17
-5.38
-8.31
-10.93
-13.18
-15.04
-16.56
-17.81
-18.97
-20.20
-21.69
-23.62
-26.10
-29.08
-32.21
-34.86
-36.18
-35.31
-31.71
-25.28
-16.47
-6.11
4.82
15.46
25.19
33.63
40.63
46.08
49.95
52.28
53.17
52.84
51.54
49.52
46.99
44.14
41.13
38.11
35.22
32.55
30.11
27.85
25.69
23.59
21.52
19.42
17.21
14.78
11.98
8.75
5.14
1.27
-2.63
-6.31
-9.57
-12.22
-14.08
-15.02
-14.90
-13.63
-11.17
-7.56
-2.93
2.40
8.01
13.37
17.94
21.28
23.17
23.54
22.49
20.24
17.04
13.20
9.02
4.72
0.45
-3.81
-8.27
-13.19
-18.76
-24.97
-31.45
-37.61
-42.74
-46.32
-48.23
-48.72
-48.36
-47.64
-46.80
-45.75
-44.17
-41.83
-38.70
-35.10
-31.53
-28.49
-26.35
-25.26
-25.18
-25.86
-26.90
-27.76
-27.84
-26.71
-24.22
-20.61
-16.41
-12.20
-8.39
-5.15
-2.44
-0.17
1.69
3.05
3.76
3.74
3.03
1.74
-0.02
-2.19
-4.75
-7.67
-10.87
-14.17
-17.41
-20.53
-23.59
-26.74
-30.05
-33.34
-36.06
-37.40
-36.57
-33.06
-26.94
-18.82
-9.68
-0.50
7.97
15.31
21.36
26.06
29.41
31.39
32.10
31.80
30.84
29.63
28.45
27.45
26.59
25.74
24.71
23.37
21.61
19.48
17.07
14.58
12.12
9.75
7.38
4.85
1.98
-1.36
-5.17
-9.33
-13.63
-17.67
-20.91
-22.70
-22.39
-19.62
-14.38
-7.17
1.15
9.63
17.44
24.09
29.38
33.29
35.83
36.96
36.69
35.09
32.46
29.20
25.73
22.31
19.05
15.88
12.72
9.57
6.50
3.65
1.09
-1.18
-3.28
-5.38
-7.59
-9.98
-12.55
-15.27
-18.15
-21.26
-24.59
-28.00
-31.12
-33.38
-34.11
-32.75
-29.04
-23.12
-15.55
-7.09
1.42
9.28
16.01
21.37
25.34
27.98
29.45
29.85
29.30
27.90
25.79
23.17
20.31
17.45
14.78
12.38
10.23
8.24
6.32
4.44
2.58
0.74
-1.10
-3.01
-4.99
-7.01
-9.07
-11.15
-13.37
-15.81
-18.52
-21.30
-23.73
-25.19
-25.08
-23.02
-18.96
-13.19
-6.30
1.01
8.03
14.20
19.13
22.68
24.87
25.84
25.74
24.74
22.99
20.70
18.13
15.58
13.25
11.21
9.43
7.79
6.17
4.50
2.77
0.96
-0.94
-2.93
-4.92
-6.82
-8.53
-10.08
-11.68
-13.58
-15.97
-18.80
-21.68
-23.99
-25.03
-24.27
-21.49
-16.82
-10.65
-3.56
3.80
10.83
16.97
21.81
25.10
26.78
27.01
26.11
24.48
22.52
20.55
18.72
17.08
15.61
14.24
12.95
11.72
10.57
9.50
8.51
7.57
6.64
5.65
4.56
3.32
1.94
0.47
-0.98
-2.26
-3.15
-3.48
-3.13
-2.11
-0.63
1.00
2.45
3.50
4.07
4.22
4.03
3.54
2.77
1.70
0.41
-0.97
-2.30
-3.46
-4.42
-5.26
-6.05
-6.88
-7.74
-8.59
-9.35
-9.99
-10.50
-10.91
-11.33
-11.86
-12.61
-13.66
-14.97
-16.46
-17.95
-19.30
-20.40
-21.25
-21.95
-22.69
-23.69
-25.13
-27.07
-29.31
-31.43
-32.80
-32.78
-30.87
-26.90
-21.11
-14.05
-6.48
0.89
7.47
12.87
16.88
19.44
20.57
20.42
19.23
17.30
14.98
12.59
10.38
8.47
6.88
5.56
4.43
3.35
2.22
0.95
-0.53
-2.17
-3.85
-5.43
-6.80
-7.93
-8.91
-9.92
-11.15
-12.76
-14.81
-17.23
-19.80
-22.11
-23.62
-23.75
-22.04
-18.35
-12.95
-6.49
0.18
6.25
11.15
14.63
16.75
17.73
17.82
17.25
16.21
14.87
13.37
11.85
10.38
8.99
7.65
6.31
4.90
3.41
1.80
0.11
-1.63
-3.34
-4.91
-6.26
-7.35
-8.22
-9.01
-9.90
-11.05
-12.57
-14.44
-16.53
-18.55
-20.10
-20.70
-19.94
-17.58
-13.67
-8.51
-2.64
3.35
8.88
13.57
17.19
19.65
21.01
21.39
20.97
19.97
18.64
17.20
15.83
14.62
13.59
12.74
12.01
11.35
10.73
10.10
9.45
8.76
8.00
7.17
6.23
5.17
3.99
2.75
1.53
0.47
-0.32
-0.76
-0.86
-0.74
-0.55
-0.41
-0.38
-0.41
-0.44
-0.41
-0.36
-0.35
-0.52
-0.95
-1.66
-2.57
-3.53
-4.40
-5.10
-5.60
-5.99
-6.36
-6.84
-7.48
-8.22
-8.91
-9.35
-9.35
-8.82
-7.86
-6.70
-5.61
-4.82
-4.40
-4.27
-4.28
-4.29
-4.28
-4.33
-4.62
-5.35
-6.62
-8.41
-10.53
-12.60
-14.13
-14.64
-13.80
-11.53
-8.05
-3.74
0.90
5.45
9.54
12.89
15.30
16.64
16.92
16.30
15.05
13.50
11.91
10.46
9.20
8.08
6.98
5.76
4.27
2.43
0.22
-2.28
-4.95
-7.67
-10.36
-12.97
-15.50
-17.95
-20.28
-22.41
-24.27
-25.85
-27.17
-28.26
-29.04
-29.28
-28.66
-26.89
-23.85
-19.73
-14.94
-9.96
-5.19
-0.88
2.90
6.08
8.55
10.20
10.92
10.77
9.97
8.85
7.75
6.95
6.53
6.46
6.53
6.44
5.93
4.85
3.25
1.36
-0.52
-2.15
-3.47
-4.62
-5.88
-7.52
-9.76
-12.67
-16.18
-20.05
-23.85
-27.02
-28.94
-29.12
-27.33
-23.77
-18.90
-13.32
-7.54
-1.92
3.34
8.07
12.09
15.17
17.17
18.12
18.31
18.19
18.25
18.83
19.92
21.19
22.02
21.71
19.76
16.08
11.04
5.38
-0.11
-4.86
-8.69
-11.78
-14.52
-17.22
-19.98
-22.69
-25.07
-26.84
-27.79
-27.84
-26.92
-24.98
-21.93
-17.70
-12.33
-6.05
0.74
7.47
13.62
18.81
22.85
25.75
27.56
28.35
28.28
27.63
26.85
26.44
26.76
27.75
29.00
29.85
29.71
28.27
25.56
21.77
17.06
11.50
5.16
-1.74
-8.67
-14.95
-19.99
-23.55
-25.85
-27.37
-28.54
-29.43
-29.71
-28.78
-26.12
-21.58
-15.44
-8.36
-1.06
5.82
11.87
16.79
20.37
22.47
23.10
22.60
21.63
21.11
21.93
24.63
29.10
34.51
39.45
42.36
42.02
38.09
31.26
23.13
15.65
10.40
8.05
8.17
9.54
10.64
10.26
7.79
3.24
-2.95
-10.14
-17.61
-24.59
-30.29
-34.03
-35.42
-34.54
-31.91
-28.39
-24.80
-21.72
-19.31
-17.43
-15.79
-14.22
-12.71
-11.41
-10.43
-9.76
-9.25
-8.77
-8.30
-8.00
-8.14
-8.85
-10.04
-11.35
-12.34
-12.66
-12.31
-11.53
-10.70
-10.04
-9.50
-8.83
-7.70
-6.01
-3.83
-1.34
1.45
4.84
9.35
15.49
23.39
32.65
42.44
51.82
60.05
66.78
71.96
75.66
78.00
79.06
79.02
78.14
76.69
74.73
72.00
67.98
62.17
54.42
45.10
34.99
24.95
15.62
7.22
-0.45
-7.74
-14.98
-22.30
-29.61
-36.65
-43.08
-48.45
-52.26
-53.94
-52.99
-49.12
-42.45
-33.65
-23.88
-14.57
-7.03
-2.07
0.31
0.81
0.59
0.82
2.33
5.48
10.24
16.40
23.67
31.71
40.06
47.99
54.57
58.87
60.24
58.50
54.03
47.56
39.85
31.45
22.56
13.18
3.35
-6.63
-16.18
-24.60
-31.38
-36.44
-40.14
-43.16
-46.09
-49.17
-52.14
-54.33
-54.94
-53.38
-49.46
-43.51
-36.26
-28.66
-21.55
-15.58
-11.05
-8.01
-6.37
-6.01
-6.79
-8.51
-10.89
-13.49
-15.85
-17.61
-18.60
-18.93
-18.86
-18.74
-18.83
-19.22
-19.83
-20.48
-21.01
-21.38
-21.69
-22.17
-23.07
-24.53
-26.50
-28.74
-30.78
-32.10
-32.10
-30.28
-26.29
-20.08
-11.95
-2.54
7.34
16.92
25.69
33.40
40.01
45.45
49.53
51.91
52.27
50.52
46.92
42.04
36.57
31.04
25.66
20.30
14.73
8.83
2.79
-2.93
-7.79
-11.46
-14.01
-15.85
-17.63
-19.89
-22.95
-26.85
-31.38
-36.19
-40.85
-44.80
-47.48
-48.38
-47.19
-43.94
-39.02
-33.09
-26.92
-21.20
-16.48
-13.07
-11.08
-10.46
-11.01
-12.43
-14.37
-16.44
-18.36
-19.90
-20.98
-21.62
-21.95
-22.20
-22.55
-23.09
-23.76
-24.34
-24.55
-24.21
-23.36
-22.25
-21.30
-20.92
-21.34
-22.59
-24.43
-26.50
-28.36
-29.54
-29.62
-28.26
-25.26
-20.70
-14.91
-8.45
-1.98
3.91
8.79
12.44
14.79
15.87
15.78
14.68
12.80
10.47
8.03
5.78
3.88
2.39
1.25
0.38
-0.33
-0.98
-1.68
-2.54
-3.63
-4.97
-6.48
-8.04
-9.52
-10.89
-12.15
-13.38
-14.62
-15.86
-16.95
-17.65
-17.65
-16.67
-14.56
-11.35
-7.26
-2.67
2.04
6.48
10.39
13.54
15.77
16.96
17.03
15.98
13.97
11.36
8.63
6.30
4.78
4.22
4.48
5.19
5.78
5.79
5.01
3.53
1.64
-0.37
-2.34
-4.30
-6.34
-8.73
-11.67
-15.24
-19.23
-23.19
-26.54
-28.72
-29.33
-28.23
-25.69
-22.08
-17.63
-12.22
-5.60
2.26
10.86
19.14
25.70
28.67
26.78
20.10
10.37
0.39
-7.09
-10.38
-9.43
-5.72
-2.87
-4.49
-12.46
-25.71
-40.52
-52.24
-57.01
-53.04
-41.19
-26.51
-15.81
-15.11
-27.37
-51.94
-85.16
-120.85
-150.98
-167.26
-166.12
-149.10
-122.71
-96.11
-78.60
-77.17
-94.42
-127.95
-157.38
-164.24
-140.60
-94.98
-43.98
0.30
34.42
60.73
82.86
102.65
117.53
123.65
118.63
103.50
82.57
62.03
48.35
46.86
59.95
84.03
111.37
133.69
145.89
147.50
141.33
131.08
119.31
107.05
93.73
79.65
67.28
60.69
63.02
73.99
89.49
103.52
111.08
109.61
99.64
84.46
68.58
55.69
47.39
42.60
38.52
31.92
20.80
4.95
-12.83
-27.80
-35.14
-32.26
-20.38
-4.21
9.75
15.84
11.26
-2.88
-22.61
-42.91
-59.38
-69.05
-70.53
-63.65
-49.37
-29.97
-8.56
11.14
25.77
33.46
34.09
28.67
18.32
3.86
-13.54
-31.19
-44.73
-49.25
-41.51
-21.74
6.14
36.13
62.54
81.74
92.60
95.38
90.32
77.38
57.10
31.88
5.66
-17.60
-36.16
-49.28
-58.33
-65.30
-70.86
-73.67
-71.51
-63.68
-51.33
-40.17
-36.96
-43.63
-55.47
-65.20
-67.71
-62.59
-53.28
-44.67
-39.06
-36.02
-33.23
-28.21
-19.64
-7.55
7.20
24.26
42.13
60.46
79.16
97.86
115.17
128.87
136.88
138.26
133.75
125.39
115.96
107.70
101.68
97.43
93.06
85.98
73.79
55.08
30.38
2.70
-23.45
-43.57
-55.02
-57.92
-54.78
-49.17
-44.18
-41.18
-39.50
-37.68
-34.63
-30.36
-25.75
-21.82
-19.18
-18.11
-18.64
-20.62
-23.85
-28.12
-32.83
-36.85
-38.88
-36.81
-30.39
-22.15
-15.52
-12.28
-11.92
-12.79
-13.39
-13.13
-12.30
-11.74
-12.03
-12.96
-13.91
-14.53
-14.97
-15.67
-16.92
-18.61
-20.31
-21.25
-20.55
-17.68
-12.81
-6.86
-1.03
3.64
6.56
7.78
7.71
7.01
6.29
5.81
5.47
5.00
4.23
3.15
1.93
0.78
-0.13
-0.72
-1.10
-1.45
-1.91
-2.49
-3.12
-3.71
-4.23
-4.70
-5.15
-5.68
-6.33
-7.17
-8.22
-9.50
-10.92
-12.20
-12.93
-12.64
-11.01
-8.06
-4.22
-0.19
3.25
5.61
6.70
6.72
6.01
4.91
3.67
2.45
1.47
0.98
1.20
2.20
3.80
5.56
6.94
7.53
7.15
5.94
4.23
2.32
0.39
-1.59
-3.77
-6.27
-9.04
-11.86
-14.29
-15.92
-16.36
-15.40
-13.00
-9.29
-4.57
0.67
5.87
10.39
13.74
15.69
16.31
15.96
15.12
14.20
13.47
13.03
12.85
12.91
13.15
13.53
13.92
14.11
13.90
13.13
11.83
10.19
8.50
7.00
5.78
4.79
3.82
2.64
1.11
-0.80
-3.06
-5.59
-8.33
-11.21
-14.05
-16.55
-18.29
-18.87
-17.99
-15.58
-11.87
-7.36
-2.64
1.77
5.48
8.31
10.25
11.50
12.29
12.78
12.96
12.75
12.12
11.10
9.87
8.58
7.59
7.14
7.15
7.24
7.02
6.31
5.11
3.79
2.60
2.13
2.66
4.01
5.63
6.89
7.56
7.59
7.54
7.97
10.11
15.07
23.36
34.60
47.64
61.13
73.63
84.59
89.23
84.24
69.53
48.83
27.31
8.57
-4.35
-13.31
-20.16
-26.25
-31.61
-35.55
-37.65
-37.53
-35.48
-32.23
-29.14
-26.98
-26.10
-25.71
-24.64
-21.99
-17.72
-12.53
-7.33
-3.01
0.36
3.26
6.45
10.41
15.15
20.31
24.91
28.37
30.33
30.89
30.13
28.11
24.82
20.32
14.87
8.95
3.26
-1.65
-5.44
-8.20
-10.32
-12.24
-14.29
-16.67
-19.46
-22.60
-25.93
-29.11
-31.71
-33.22
-33.31
-31.92
-29.37
-26.26
-23.24
-20.84
-19.27
-18.41
-17.90
-17.26
-16.09
-14.12
-11.30
-7.81
-3.98
-0.30
2.70
4.57
5.06
4.23
2.42
0.16
-1.98
-3.56
-4.34
-4.32
-3.71
-2.80
-1.96
-1.50
-1.60
-2.30
-3.46
-4.81
-6.12
-7.19
-7.96
-8.51
-8.96
-9.44
-9.98
-10.48
-10.74
-10.58
-9.91
-8.83
-7.58
-6.46
-5.67
-5.24
-5.07
-4.96
-4.73
-4.36
-3.92
-3.53
-3.27
-3.13
-3.04
-2.90
-2.63
-2.21
-1.72
-1.28
-1.04
-1.11
-1.48
-2.06
-2.68
-3.16
-3.33
-3.11
-2.49
-1.56
-0.45
0.59
1.31
1.49
1.08
0.34
-0.22
0.06
1.76
5.12
9.95
15.66
21.43
26.45
30.16
32.26
32.77
31.83
29.72
26.76
23.29
19.61
15.97
12.51
9.29
6.30
3.53
0.99
-1.32
-3.36
-5.09
-6.50
-7.59
-8.39
-8.99
-9.54
-10.28
-11.46
-13.30
-15.85
-19.02
-22.48
-25.79
-28.46
-30.08
-30.42
-29.48
-27.52
-24.98
-22.32
-19.91
-17.98
-16.54
-15.52
-14.80
-14.29
-13.94
-13.68
-13.44
-13.05
-12.36
-11.27
-9.82
-8.18
-6.63
-5.38
-4.51
-3.92
-3.38
-2.66
-1.59
-0.18
1.46
3.15
4.77
6.26
7.63
8.89
10.05
11.11
12.11
13.21
14.61
16.50
18.96
21.83
24.80
27.44
29.35
30.25
30.02
28.70
26.40
23.28
19.54
15.41
11.16
7.06
3.39
0.32
-2.11
-3.95
-5.36
-6.48
-7.40
-8.15
-8.68
-8.95
-8.98
-8.86
-8.74
-8.75
-8.90
-9.14
-9.32
-9.27
-8.83
-7.88
-6.36
-4.22
-1.53
1.60
4.91
8.09
10.77
12.67
13.65
13.73
13.07
11.93
10.53
9.05
7.57
6.09
4.54
2.89
1.15
-0.63
-2.33
-3.83
-5.08
-6.08
-6.90
-7.63
-8.30
-8.89
-9.31
-9.47
-9.29
-8.76
-7.87
-6.63
-5.04
-3.08
-0.83
1.56
3.81
5.60
6.72
7.09
6.85
6.25
5.57
5.00
4.55
4.09
3.46
2.54
1.36
0.03
-1.25
-2.35
-3.26
-4.04
-4.79
-5.57
-6.40
-7.20
-7.92
-8.55
-9.13
-9.72
-10.41
-11.26
-12.32
-13.56
-14.92
-16.23
-17.24
-17.66
-17.27
-15.94
-13.72
-10.86
-7.67
-4.49
-1.58
0.90
2.88
4.33
5.24
5.62
5.55
5.13
4.54
3.94
3.44
3.08
2.83
2.65
2.52
2.42
2.33
2.21
1.93
1.43
0.68
-0.26
-1.27
-2.22
-3.09
-3.90
-4.67
-5.38
-5.83
-5.76
-4.91
-3.16
-0.59
2.52
5.81
8.97
11.72
13.87
15.28
15.86
15.60
14.62
13.15
11.50
9.91
8.56
7.48
6.62
5.90
5.24
4.57
3.81
2.90
1.85
0.75
-0.26
-1.08
-1.74
-2.36
-3.18
-4.36
-5.90
-7.62
-9.17
-10.17
-10.33
-9.56
-7.94
-5.73
-3.25
-0.85
1.18
2.69
3.61
3.99
3.91
3.44
2.58
1.31
-0.37
-2.36
-4.40
-6.14
-7.24
-7.56
-7.21
-6.46
-5.61
-4.81
-3.98
-2.92
-1.43
0.50
2.68
4.76
6.41
7.45
7.82
7.64
7.14
6.68
6.73
7.80
10.33
14.46
20.00
26.35
32.73
38.24
42.13
43.88
43.30
40.51
35.89
29.95
23.16
15.83
8.10
0.07
-8.09
-15.98
-23.06
-28.87
-33.21
-36.28
-38.54
-40.46
-42.25
-43.75
-44.62
-44.49
-43.21
-40.88
-37.78
-34.26
-30.61
-27.06
-23.75
-20.81
-18.25
-16.00
-13.86
-11.60
-9.07
-6.36
-3.79
-1.79
-0.70
-0.58
-1.06
-1.44
-0.94
1.07
4.78
9.98
16.19
22.84
29.42
35.51
40.63
44.29
46.06
45.78
43.75
40.63
37.24
34.26
31.97
30.24
28.65
26.83
24.50
21.67
18.47
15.10
11.79
8.66
5.76
2.95
-0.02
-3.45
-7.56
-12.42
-17.93
-23.74
-29.40
-34.54
-38.98
-42.65
-45.48
-47.40
-48.33
-48.16
-46.69
-43.79
-39.50
-34.11
-27.96
-21.37
-14.49
-7.48
-0.43
6.75
13.96
20.80
26.53
30.41
32.10
31.83
30.21
28.20
27.12
28.06
31.67
37.96
46.60
57.05
68.77
80.94
89.96
92.38
86.63
74.31
58.97
43.83
30.63
20.66
12.61
5.50
-0.80
-5.97
-9.77
-12.42
-14.27
-15.77
-17.38
-19.53
-22.19
-24.85
-26.88
-27.89
-27.96
-27.49
-26.99
-26.73
-26.86
-27.19
-27.27
-26.77
-25.60
-23.94
-22.10
-20.39
-19.01
-18.14
-17.78
-17.77
-17.87
-17.82
-17.43
-16.66
-15.61
-14.46
-13.38
-12.41
-11.45
-10.36
-9.08
-7.70
-6.35
-5.15
-4.13
-3.27
-2.52
-1.90
-1.54
-1.53
-1.83
-2.34
-2.86
-3.29
-3.72
-4.32
-5.23
-6.42
-7.56
-8.17
-7.79
-6.24
-3.66
-0.49
2.75
5.64
8.00
9.83
11.23
12.26
12.88
12.98
12.51
11.52
10.23
8.89
7.71
6.75
5.96
5.19
4.30
3.23
2.01
0.75
-0.42
-1.41
-2.20
-2.87
-3.57
-4.44
-5.61
-7.12
-8.92
-10.84
-12.67
-14.11
-14.86
-14.71
-13.55
-11.52
-8.90
-6.12
-3.59
-1.54
-0.06
0.91
1.47
1.71
1.67
1.41
1.03
0.66
0.47
0.54
0.88
1.32
1.70
1.85
1.68
1.25
0.71
0.23
-0.09
-0.25
-0.35
-0.57
-1.04
-1.88
-3.12
-4.70
-6.48
-8.23
-9.62
-10.28
-9.90
-8.39
-5.84
-2.61
0.88
4.21
7.09
9.45
11.34
12.87
14.07
14.88
15.15
14.75
13.62
11.87
9.78
7.69
5.85
4.37
3.13
1.90
0.42
-1.42
-3.53
-5.63
-7.37
-8.51
-9.05
-9.24
-9.47
-10.13
-11.40
-13.15
-15.04
-16.58
-17.32
-16.97
-15.46
-12.91
-9.58
-5.83
-2.06
1.35
4.16
6.26
7.73
8.73
9.43
9.94
10.25
10.35
10.24
10.00
9.70
9.42
9.11
8.66
7.95
6.94
5.64
4.15
2.53
0.79
-1.06
-3.03
-5.00
-6.81
-8.26
-9.22
-9.66
-9.65
-9.25
-8.49
-7.34
-5.82
-4.05
-2.23
-0.57
0.77
1.70
2.27
2.50
2.42
2.06
1.47
0.75
0.05
-0.53
-0.96
-1.30
-1.65
-2.10
-2.67
-3.32
-3.98
-4.63
-5.26
-5.90
-6.56
-7.26
-7.98
-8.68
-9.34
-9.95
-10.51
-11.07
-11.69
-12.44
-13.36
-14.37
-15.29
-15.80
-15.56
-14.27
-11.87
-8.50
-4.51
-0.39
3.39
6.48
8.66
9.88
10.22
9.83
8.96
7.83
6.64
5.49
4.40
3.30
2.08
0.69
-0.84
-2.39
-3.77
-4.82
-5.42
-5.57
-5.42
-5.15
-5.02
-5.29
-6.11
-7.53
-9.40
-11.42
-13.17
-14.27
-14.44
-13.68
-12.23
-10.50
-8.89
-7.64
-6.77
-6.03
-5.03
-3.38
-0.93
2.21
5.67
9.15
12.50
15.77
19.17
22.86
26.89
31.05
34.98
38.30
40.98
43.19
45.05
46.54
47.45
47.59
46.69
44.70
41.57
37.67
33.31
28.48
22.84
16.08
8.42
0.61
-5.91
-9.75
-9.56
-4.90
3.55
14.34
25.89
37.24
47.69
57.01
61.50
58.34
47.30
31.64
15.96
3.53
-3.49
-6.75
-8.11
-8.93
-9.53
-9.92
-10.35
-11.10
-12.43
-14.20
-16.40
-18.67
-20.77
-22.44
-24.03
-26.14
-29.29
-33.52
-38.13
-42.60
-46.35
-49.17
-48.94
-44.67
-36.88
-27.35
-19.62
-13.97
-10.20
-8.04
-6.70
-5.78
-5.28
-5.17
-5.31
-5.43
-5.06
-4.21
-3.04
-1.73
-0.50
0.35
0.66
0.52
0.17
0.08
0.30
0.76
1.32
1.80
1.94
1.61
0.82
-0.33
-1.58
-2.85
-4.08
-5.10
-5.70
-5.69
-4.89
-3.27
-0.89
2.05
5.16
8.02
10.28
11.71
12.16
11.60
10.12
7.92
5.27
2.45
-0.28
-2.80
-5.14
-7.39
-9.69
-12.07
-14.47
-16.69
-18.53
-19.88
-20.72
-21.20
-21.53
-21.96
-22.60
-23.44
-24.27
-24.72
-24.39
-23.00
-20.47
-16.96
-12.81
-8.38
-4.02
0.03
3.57
6.40
8.36
9.40
9.60
9.24
8.64
8.08
7.67
7.35
6.94
6.31
5.47
4.50
3.55
2.65
1.75
0.74
-0.44
-1.73
-2.94
-3.86
-4.35
-4.40
-4.15
-3.86
-3.76
-4.03
-4.69
-5.57
-6.40
-6.78
-6.38
-4.99
-2.60
0.58
4.21
7.94
11.45
14.50
16.95
18.74
19.87
20.35
20.24
19.62
18.59
17.28
15.83
14.39
13.08
11.93
10.92
9.96
9.03
8.12
7.31
6.64
6.11
5.64
5.09
4.30
3.24
1.95
0.62
-0.50
-1.14
-1.12
-0.35
1.11
3.03
5.14
7.11
8.71
9.80
10.38
10.49
10.24
9.73
9.05
8.24
7.31
6.28
5.18
4.06
3.01
2.07
1.22
0.40
-0.52
-1.61
-2.87
-4.21
-5.51
-6.68
-7.75
-8.80
-9.97
-11.35
-12.98
-14.83
-16.86
-19.04
-21.31
-23.55
-25.50
-26.79
-27.00
-25.84
-23.23
-19.41
-14.82
-9.99
-5.41
-1.42
1.78
4.09
5.50
6.06
5.89
5.23
4.34
3.51
2.91
2.57
2.42
2.34
2.25
2.15
2.11
2.23
2.56
3.10
3.76
4.39
4.86
5.03
4.87
4.41
3.83
3.36
3.27
3.78
4.97
6.78
9.00
11.37
13.60
15.45
16.79
17.53
17.70
17.37
16.66
15.70
14.61
13.53
12.56
11.79
11.31
11.10
11.09
11.08
10.83
10.10
8.77
6.85
4.51
2.00
-0.40
-2.49
-4.18
-5.49
-6.51
-7.44
-8.50
-9.88
-11.68
-13.86
-16.19
-18.30
-19.74
-20.12
-19.20
-16.96
-13.57
-9.38
-4.83
-0.35
3.72
7.20
10.03
12.23
13.88
14.97
15.51
15.51
15.01
14.15
13.09
11.97
10.83
9.67
8.49
7.32
6.23
5.35
4.75
4.41
4.22
4.00
3.58
2.87
1.87
0.73
-0.35
-1.13
-1.47
-1.32
-0.73
0.15
1.15
2.16
3.05
3.77
4.23
4.38
4.17
3.58
2.65
1.44
0.09
-1.29
-2.57
-3.66
-4.54
-5.24
-5.86
-6.53
-7.31
-8.20
-9.13
-9.98
-10.66
-11.15
-11.48
-11.76
-12.08
-12.50
-13.03
-13.65
-14.35
-15.13
-15.98
-16.89
-17.77
-18.46
-18.70
-18.21
-16.72
-14.11
-10.47
-6.06
-1.32
3.27
7.27
10.38
12.49
13.62
13.92
13.62
12.88
11.90
10.79
9.66
8.63
7.77
7.12
6.64
6.25
5.84
5.34
4.72
3.98
3.15
2.24
1.24
0.06
-1.38
-3.16
-5.28
-7.66
-10.09
-12.26
-13.80
-14.36
-13.72
-11.84
-8.92
-5.35
-1.54
2.09
5.29
7.90
9.86
11.15
11.76
11.67
10.94
9.72
8.26
6.85
5.69
4.84
4.18
3.46
2.47
1.12
-0.48
-2.08
-3.42
-4.40
-5.09
-5.73
-6.53
-7.60
-8.90
-10.31
-11.73
-13.09
-14.35
-15.36
-15.83
-15.39
-13.75
-10.84
-6.93
-2.49
1.92
5.89
9.21
11.85
13.84
15.13
15.64
15.34
14.30
12.74
11.04
9.50
8.27
7.28
6.32
5.15
3.64
1.85
0.00
-1.63
-2.86
-3.62
-4.04
-4.33
-4.74
-5.46
-6.55
-7.98
-9.59
-11.17
-12.48
-13.28
-13.37
-12.54
-10.71
-7.88
-4.28
-0.29
3.60
6.93
9.44
11.11
12.09
12.61
12.84
12.81
12.46
11.72
10.60
9.25
7.84
6.56
5.48
4.59
3.79
3.04
2.31
1.63
1.01
0.45
-0.14
-0.79
-1.49
-2.15
-2.60
-2.66
-2.26
-1.43
-0.30
0.93
2.10
3.07
3.79
4.22
4.38
4.28
4.00
3.60
3.15
2.70
2.22
1.73
1.23
0.80
0.51
0.44
0.56
0.78
0.94
0.87
0.49
-0.20
-1.12
-2.21
-3.38
-4.64
-6.01
-7.52
-9.18
-10.94
-12.68
-14.31
-15.82
-17.29
-18.86
-20.58
-22.35
-23.87
-24.72
-24.53
-23.16
-20.77
-17.77
-14.58
-11.47
-8.54
-5.72
-2.92
-0.13
2.56
5.04
7.24
9.29
11.44
13.83
16.37
18.74
20.43
21.02
20.27
18.31
15.73
13.25
11.42
10.40
9.99
9.79
9.43
8.65
7.34
5.82
4.46
3.52
3.05
2.99
3.26
3.84
4.66
5.61
6.91
8.83
11.56
15.08
19.25
23.89
28.92
34.24
37.70
37.67
33.84
27.54
20.55
13.96
7.99
2.55
-2.36
-6.61
-9.68
-11.23
-11.33
-10.50
-9.34
-8.44
-8.07
-8.31
-9.17
-10.33
-11.42
-12.11
-12.26
-11.91
-11.15
-10.15
-9.06
-8.07
-6.84
-5.18
-3.02
-0.58
1.79
3.72
5.03
5.74
6.01
6.13
6.26
6.39
6.23
5.49
4.11
2.39
0.79
-0.28
-0.71
-0.75
-0.88
-1.79
-3.86
-6.87
-10.14
-12.88
-14.65
-15.48
-15.75
-15.91
-16.59
-18.06
-20.15
-22.44
-24.52
-26.23
-27.45
-28.04
-27.83
-27.19
-26.68
-26.89
-28.16
-30.57
-33.78
-37.02
-39.21
-36.74
-27.90
-14.20
0.17
11.15
16.90
17.95
16.21
13.88
12.55
12.01
11.80
11.59
11.50
11.92
13.20
15.35
18.05
20.72
22.41
22.68
21.69
20.32
19.63
20.36
22.58
25.77
29.03
31.27
31.81
30.61
28.14
25.06
21.88
18.82
15.89
12.98
9.88
6.53
3.01
-0.40
-3.39
-5.71
-7.35
-8.47
-9.44
-10.64
-12.34
-14.54
-17.02
-19.47
-21.67
-23.56
-25.22
-26.76
-28.24
-29.62
-30.84
-31.87
-32.70
-33.29
-33.53
-33.14
-31.78
-29.17
-25.22
-20.10
-14.23
-8.13
-2.35
2.71
6.79
9.78
11.68
12.60
12.74
12.36
11.83
11.47
11.50
11.95
12.63
13.18
13.24
12.55
11.07
8.94
6.43
3.82
1.26
-1.20
-3.63
-6.15
-8.85
-11.72
-14.59
-17.13
-18.89
-19.42
-18.42
-15.81
-11.81
-6.82
-1.37
3.98
8.72
12.40
14.69
15.44
14.75
12.95
10.57
8.11
5.94
4.18
2.73
1.40
0.04
-1.35
-2.69
-3.83
-4.75
-5.53
-6.36
-7.38
-8.64
-10.06
-11.52
-12.98
-14.57
-16.48
-18.81
-21.38
-23.73
-25.24
-25.32
-23.74
-20.68
-16.66
-12.29
-8.06
-4.20
-0.72
2.45
5.36
8.00
10.32
12.31
14.03
15.59
17.11
18.65
20.17
21.57
22.70
23.42
23.65
23.31
22.40
20.96
19.14
17.17
15.28
13.66
12.30
11.05
9.62
7.79
5.52
3.02
0.70
-0.96
-1.64
-1.23
0.14
2.21
4.68
7.31
9.93
12.48
14.90
17.17
19.24
21.05
22.48
23.42
23.79
23.56
22.73
21.34
19.37
16.75
13.43
9.38
4.77
-0.10
-4.76
-8.78
-11.81
-13.75
-14.69
-14.91
-14.73
-14.46
-14.31
-14.37
-14.60
-14.85
-14.88
-14.43
-13.27
-11.29
-8.52
-5.15
-1.50
2.10
5.34
8.00
9.97
11.20
11.71
11.57
10.88
9.82
8.60
7.44
6.49
5.77
5.19
4.61
3.89
2.98
1.94
0.90
-0.03
-0.78
-1.37
-1.94
-2.63
-3.57
-4.76
-6.03
-7.06
-7.45
-6.89
-5.26
-2.69
0.46
3.74
6.67
8.95
10.39
11.00
10.87
10.19
9.18
8.05
6.93
5.88
4.90
3.98
3.08
2.24
1.46
0.76
0.13
-0.47
-1.08
-1.76
-2.53
-3.41
-4.42
-5.58
-6.91
-8.40
-10.05
-11.79
-13.57
-15.31
-16.87
-18.12
-18.87
-18.92
-18.13
-16.45
-13.99
-10.98
-7.72
-4.45
-1.29
1.71
4.56
7.17
9.37
10.94
11.73
11.76
11.18
10.21
9.05
7.81
6.57
5.42
4.44
3.75
3.40
3.30
3.30
3.22
2.98
2.56
2.03
1.45
0.81
0.07
-0.84
-1.91
-3.08
-4.19
-5.03
-5.42
-5.18
-4.23
-2.56
-0.30
2.30
4.92
7.24
9.04
10.26
10.91
11.06
10.80
10.15
9.20
8.04
6.83
5.68
4.61
3.58
2.46
1.16
-0.31
-1.83
-3.23
-4.38
-5.24
-5.89
-6.45
-7.05
-7.79
-8.66
-9.62
-10.58
-11.45
-12.10
-12.38
-12.11
-11.14
-9.41
-6.98
-4.07
-1.02
1.81
4.15
5.85
6.97
7.65
8.03
8.20
8.18
7.96
7.54
7.00
6.42
5.87
5.32
4.68
3.82
2.72
1.43
0.14
-0.94
-1.69
-2.11
-2.37
-2.68
-3.21
-4.07
-5.21
-6.55
-7.98
-9.38
-10.57
-11.34
-11.44
-10.67
-9.01
-6.64
-3.91
-1.20
1.20
3.15
4.65
5.72
6.42
6.76
6.79
6.61
6.37
6.14
5.93
5.63
5.12
4.34
3.36
2.34
1.47
0.85
0.49
0.30
0.16
-0.07
-0.46
-1.08
-1.96
-3.14
-4.63
-6.35
-8.16
-9.82
-10.99
-11.41
-10.89
-9.47
-7.37
-4.90
-2.42
-0.16
1.75
3.31
4.58
5.58
6.28
6.66
6.66
6.29
5.57
4.60
3.52
2.50
1.70
1.22
1.05
1.09
1.17
1.16
1.03
0.77
0.42
-0.07
-0.78
-1.79
-3.05
-4.41
-5.56
-6.25
-6.26
-5.49
-3.94
-1.64
1.30
4.69
8.23
11.51
14.12
15.79
16.49
16.38
15.72
14.78
13.70
12.54
11.33
10.12
8.99
8.01
7.16
6.36
5.45
4.39
3.17
1.88
0.61
-0.61
-1.82
-3.05
-4.30
-5.55
-6.75
-7.96
-9.30
-10.94
-12.93
-15.16
-17.27
-18.80
-19.30
-18.50
-16.40
-13.24
-9.42
-5.42
-1.70
1.40
3.65
4.99
5.49
5.33
4.75
3.98
3.18
2.38
1.49
0.37
-1.13
-3.02
-5.14
-7.24
-9.02
-10.28
-11.02
-11.43
-11.84
-12.59
-13.87
-15.68
-17.82
-19.96
-21.76
-22.91
-23.26
-22.76
-21.43
-19.36
-16.65
-13.47
-10.05
-6.70
-3.73
-1.34
0.38
1.54
2.30
2.83
3.22
3.47
3.51
3.30
2.82
2.13
1.30
0.41
-0.51
-1.41
-2.25
-2.97
-3.53
-3.93
-4.25
-4.63
-5.17
-5.95
-6.96
-8.15
-9.41
-10.63
-11.60
-12.05
-11.65
-10.20
-7.68
-4.36
-0.73
2.73
5.70
8.09
10.03
11.68
13.07
14.11
14.67
14.65
14.14
13.31
12.43
11.65
11.04
10.55
10.11
9.67
9.26
8.92
8.67
8.45
8.10
7.47
6.43
4.97
3.22
1.44
-0.06
-1.00
-1.20
-0.61
0.67
2.40
4.33
6.19
7.81
9.07
9.95
10.43
10.47
10.06
9.22
8.01
6.60
5.21
4.02
3.17
2.68
2.46
2.39
2.29
2.04
1.55
0.81
-0.12
-1.15
-2.18
-3.16
-4.09
-5.04
-6.14
-7.52
-9.24
-11.22
-13.25
-15.00
-16.07
-16.17
-15.14
-13.02
-10.01
-6.43
-2.69
0.83
3.74
5.80
6.92
7.19
6.84
6.17
5.45
4.84
4.38
4.05
3.79
3.52
3.19
2.75
2.18
1.49
0.73
-0.04
-0.78
-1.57
-2.55
-3.87
-5.64
-7.83
-10.27
-12.65
-14.63
-15.91
-16.27
-15.60
-13.94
-11.44
-8.36
-5.06
-1.95
0.58
2.26
2.99
2.83
2.03
0.87
-0.36
-1.48
-2.37
-3.03
-3.50
-3.81
-4.02
-4.15
-4.25
-4.32
-4.35
-4.31
-4.19
-3.99
-3.82
-3.84
-4.22
-5.05
-6.28
-7.67
-8.92
-9.72
-9.87
-9.31
-8.10
-6.32
-4.08
-1.45
1.46
4.43
7.18
9.35
10.65
10.99
10.51
9.59
8.70
8.24
8.39
9.09
10.10
11.19
12.25
13.27
14.27
15.20
15.92
16.24
16.06
15.45
14.62
13.76
12.93
12.02
10.87
9.41
7.80
6.39
5.59
5.70
6.79
8.69
11.10
13.63
15.92
17.67
18.61
18.56
17.53
15.64
13.18
10.52
7.97
5.67
3.60
1.56
-0.65
-3.13
-5.82
-8.51
-10.90
-12.75
-13.96
-14.55
-14.73
-14.71
-14.71
-14.85
-15.20
-15.77
-16.51
-17.35
-18.10
-18.50
-18.22
-16.95
-14.53
-10.99
-6.54
-1.52
3.76
9.04
14.11
18.81
22.90
26.11
28.16
28.92
28.41
26.85
24.59
21.98
19.33
16.80
14.46
12.31
10.33
8.50
6.87
5.50
4.42
3.54
2.69
1.65
0.29
-1.36
-3.06
-4.45
-5.16
-5.02
-4.06
-2.55
-0.80
0.93
2.48
3.80
4.87
5.60
5.84
5.48
4.49
3.05
1.52
0.30
-0.27
-0.07
0.79
2.03
3.24
4.02
4.09
3.30
1.65
-0.71
-3.63
-6.94
-10.57
-14.48
-18.63
-22.91
-27.08
-30.84
-33.85
-35.89
-36.88
-36.86
-35.99
-34.39
-32.16
-29.33
-25.90
-21.94
-17.64
-13.27
-9.16
-5.59
-2.73
-0.64
0.73
1.45
1.61
1.28
0.56
-0.40
-1.43
-2.33
-2.93
-3.13
-2.94
-2.42
-1.70
-0.94
-0.22
0.40
0.98
1.61
2.39
3.34
4.45
5.61
6.69
7.61
8.36
9.01
9.64
10.28
10.88
11.28
11.35
10.99
10.24
9.23
8.11
6.97
5.81
4.56
3.12
1.51
-0.21
-1.87
-3.32
-4.42
-5.13
-5.45
-5.39
-5.03
-4.45
-3.81
-3.31
-3.13
-3.38
-4.01
-4.79
-5.36
-5.32
-4.40
-2.54
0.02
2.86
5.52
7.67
9.21
10.23
10.89
11.32
11.51
11.41
10.97
10.22
9.32
8.43
7.64
6.94
6.22
5.41
4.45
3.39
2.34
1.35
0.47
-0.33
-1.12
-1.92
-2.76
-3.60
-4.42
-5.21
-5.92
-6.51
-6.85
-6.77
-6.11
-4.77
-2.77
-0.28
2.40
4.93
7.07
8.68
9.75
10.33
10.50
10.31
9.82
9.13
8.34
7.56
6.84
6.19
5.58
4.95
4.27
3.52
2.73
1.92
1.13
0.37
-0.34
-1.02
-1.69
-2.40
-3.23
-4.22
-5.40
-6.68
-7.84
-8.59
-8.62
-7.72
-5.92
-3.42
-0.60
2.15
4.58
6.53
8.00
9.01
9.57
9.67
9.30
8.55
7.53
6.40
5.32
4.38
3.61
2.98
2.45
1.99
1.58
1.21
0.84
0.44
-0.02
-0.56
-1.15
-1.76
-2.34
-2.84
-3.21
-3.38
-3.26
-2.78
-1.98
-0.97
0.03
0.81
1.25
1.34
1.17
0.86
0.47
0.00
-0.60
-1.36
-2.22
-3.05
-3.74
-4.18
-4.38
-4.42
-4.43
-4.58
-4.95
-5.53
-6.27
-7.06
-7.85
-8.61
-9.34
-10.00
-10.54
-10.91
-11.14
-11.32
-11.62
-12.14
-12.87
-13.56
-13.83
-13.32
-11.80
-9.31
-6.13
-2.69
0.59
3.42
5.62
7.20
8.23
8.84
9.15
9.23
9.14
8.88
8.46
7.93
7.34
6.77
6.27
5.85
5.44
4.95
4.29
3.42
2.42
1.41
0.52
-0.21
-0.84
-1.54
-2.46
-3.63
-4.90
-5.94
-6.43
-6.15
-5.10
-3.49
-1.56
0.44
2.41
4.30
6.05
7.57
8.68
9.24
9.22
8.72
7.89
6.95
6.03
5.17
4.37
3.62
2.90
2.20
1.54
0.90
0.29
-0.32
-0.94
-1.60
-2.33
-3.16
-4.10
-5.14
-6.24
-7.34
-8.36
-9.17
-9.62
-9.52
-8.75
-7.28
-5.23
-2.90
-0.59
1.42
3.02
4.21
5.10
5.75
6.18
6.33
6.14
5.63
4.87
3.96
2.98
1.94
0.83
-0.38
-1.61
-2.72
-3.53
-3.91
-3.87
-3.55
-3.16
-2.93
-2.97
-3.31
-3.91
-4.68
-5.52
-6.31
-6.85
-6.93
-6.37
-5.10
-3.19
-0.88
1.49
3.65
5.40
6.70
7.60
8.21
8.61
8.79
8.70
8.28
7.54
6.57
5.50
4.46
3.52
2.69
1.97
1.36
0.88
0.55
0.34
0.18
0.00
-0.29
-0.78
-1.48
-2.41
-3.45
-4.45
-5.16
-5.37
-4.95
-4.00
-2.72
-1.43
-0.40
0.23
0.48
0.44
0.21
-0.18
-0.77
-1.57
-2.52
-3.50
-4.34
-4.98
-5.44
-5.86
-6.40
-7.12
-7.98
-8.84
-9.52
-9.91
-9.97
-9.75
-9.32
-8.75
-8.09
-7.40
-6.80
-6.42
-6.38
-6.73
-7.42
-8.28
-9.03
-9.39
-9.15
-8.19
-6.53
-4.33
-1.77
0.89
3.42
5.61
7.31
8.46
9.07
9.21
8.99
8.49
7.75
6.80
5.70
4.56
3.48
2.54
1.76
1.08
0.45
-0.14
-0.63
-0.91
-0.95
-0.80
-0.62
-0.62
-0.95
-1.66
-2.66
-3.82
-4.90
-5.70
-5.99
-5.59
-4.40
-2.47
-0.00
2.69
5.26
7.47
9.20
10.46
11.35
11.95
12.29
12.37
12.13
11.54
10.63
9.46
8.14
6.82
5.62
4.66
3.98
3.50
3.11
2.65
2.00
1.17
0.27
-0.59
-1.37
-2.13
-3.02
-4.13
-5.39
-6.54
-7.23
-7.20
-6.37
-4.86
-2.91
-0.73
1.53
3.78
5.92
7.79
9.22
10.05
10.25
9.88
9.11
8.10
6.99
5.93
5.00
4.28
3.79
3.48
3.23
2.90
2.37
1.62
0.70
-0.30
-1.30
-2.29
-3.26
-4.26
-5.27
-6.28
-7.24
-8.10
-8.82
-9.30
-9.43
-9.07
-8.08
-6.46
-4.32
-1.89
0.59
2.93
5.00
6.78
8.26
9.36
9.98
10.05
9.55
8.58
7.32
5.98
4.76
3.75
2.98
2.37
1.86
1.35
0.76
0.05
-0.80
-1.73
-2.67
-3.52
-4.22
-4.76
-5.25
-5.83
-6.65
-7.77
-9.09
-10.32
-11.06
-10.99
-9.92
-7.93
-5.28
-2.34
0.57
3.21
5.45
7.21
8.40
8.94
8.80
8.08
6.96
5.71
4.56
3.68
3.13
2.90
2.89
2.97
2.93
2.61
1.87
0.71
-0.76
-2.37
-3.90
-5.20
-6.21
-6.99
-7.63
-8.29
-9.14
-10.25
-11.63
-13.09
-14.31
-14.94
-14.66
-13.39
-11.26
-8.62
-5.88
-3.41
-1.43
-0.05
0.68
0.77
0.30
-0.54
-1.41
-1.89
-1.60
-0.37
1.76
4.49
7.47
10.35
12.90
15.02
16.68
17.83
18.43
18.38
17.64
16.27
14.46
12.51
10.69
9.23
8.21
7.60
7.31
7.25
7.45
7.95
8.74
9.73
10.71
11.48
11.91
12.01
11.88
11.61
11.24
10.74
10.05
9.23
8.41
7.80
7.55
7.63
7.88
8.03
7.83
7.18
6.12
4.80
3.42
2.10
0.92
-0.11
-1.02
-1.81
-2.50
-3.08
-3.57
-4.00
-4.49
-5.13
-5.99
-7.08
-8.27
-9.36
-10.07
-10.14
-9.37
-7.66
-5.06
-1.76
1.95
5.67
9.02
11.71
13.63
14.82
15.43
15.62
15.50
15.12
14.55
13.82
13.01
12.16
11.26
10.22
8.97
7.48
5.75
3.86
1.89
-0.08
-1.95
-3.62
-4.98
-5.96
-6.62
-7.10
-7.65
-8.45
-9.60
-10.99
-12.39
-13.47
-13.97
-13.74
-12.81
-11.37
-9.68
-7.97
-6.39
-4.98
-3.77
-2.79
-2.12
-1.86
-2.04
-2.59
-3.34
-4.11
-4.76
-5.26
-5.66
-6.02
-6.39
-6.77
-7.15
-7.48
-7.74
-7.93
-8.04
-8.11
-8.16
-8.24
-8.41
-8.72
-9.24
-10.01
-10.99
-12.06
-12.99
-13.47
-13.26
-12.27
-10.57
-8.39
-5.99
-3.56
-1.24
0.88
2.67
3.95
4.59
4.55
3.95
3.00
1.93
0.89
-0.03
-0.84
-1.52
-2.03
-2.35
-2.50
-2.55
-2.64
-2.88
-3.33
-3.95
-4.68
-5.41
-6.10
-6.70
-7.21
-7.70
-8.22
-8.82
-9.49
-10.12
-10.47
-10.32
-9.49
-7.96
-5.88
-3.48
-1.01
1.33
3.37
4.96
5.99
6.42
6.26
5.65
4.78
3.85
3.02
2.35
1.87
1.51
1.15
0.69
0.03
-0.84
-1.85
-2.87
-3.75
-4.41
-4.87
-5.23
-5.61
-6.15
-6.96
-8.09
-9.51
-11.12
-12.71
-13.97
-14.58
-14.30
-13.00
-10.79
-7.92
-4.74
-1.62
1.16
3.43
5.16
6.38
7.13
7.44
7.35
6.87
6.08
5.09
4.06
3.13
2.33
1.65
1.00
0.29
-0.50
-1.32
-2.07
-2.68
-3.15
-3.56
-4.03
-4.72
-5.73
-7.09
-8.75
-10.56
-12.26
-13.57
-14.21
-13.97
-12.79
-10.72
-7.95
-4.75
-1.41
1.81
4.70
7.12
8.97
10.18
10.70
10.53
9.74
8.55
7.21
5.98
5.02
4.35
3.85
3.40
2.86
2.18
1.34
0.34
-0.76
-1.90
-2.96
-3.85
-4.53
-5.06
-5.60
-6.33
-7.39
-8.76
-10.26
-11.57
-12.32
-12.14
-10.83
-8.41
-5.13
-1.42
2.24
5.51
8.21
10.36
12.08
13.42
14.34
14.74
14.52
13.72
12.53
11.24
10.07
9.15
8.43
7.72
6.87
5.77
4.50
3.17
1.96
0.94
0.09
-0.71
-1.59
-2.66
-3.94
-5.43
-7.10
-8.90
-10.72
-12.36
-13.53
-13.88
-13.13
-11.21
-8.26
-4.67
-0.87
2.71
5.83
8.34
10.19
11.35
11.81
11.63
10.95
10.05
9.18
8.51
8.06
7.72
7.32
6.77
6.10
5.43
4.85
4.38
3.96
3.48
2.87
2.10
1.21
0.20
-0.94
-2.26
-3.81
-5.56
-7.37
-9.02
-10.24
-10.78
-10.48
-9.29
-7.28
-4.63
-1.56
1.68
4.82
7.64
9.92
11.55
12.48
12.77
12.54
11.93
11.05
10.00
8.84
7.68
6.64
5.83
5.34
5.12
5.05
4.94
4.64
4.08
3.33
2.50
1.73
1.04
0.38
-0.39
-1.38
-2.65
-4.13
-5.66
-7.07
-8.15
-8.75
-8.76
-8.11
-6.78
-4.82
-2.38
0.36
3.13
5.73
7.94
9.63
10.72
11.15
10.97
10.28
9.26
8.12
7.05
6.16
5.47
4.93
4.48
4.07
3.70
3.37
3.06
2.71
2.28
1.72
1.09
0.44
-0.16
-0.69
-1.21
-1.76
-2.40
-3.15
-3.96
-4.70
-5.16
-5.11
-4.32
-2.66
-0.17
2.88
6.10
9.05
11.39
12.92
13.64
13.67
13.16
12.32
11.26
10.13
9.01
7.98
7.09
6.33
5.72
5.20
4.68
4.10
3.43
2.73
2.12
1.74
1.67
1.84
2.10
2.23
2.10
1.66
1.02
0.33
-0.28
-0.73
-1.00
-1.11
-1.09
-1.00
-0.89
-0.81
-0.82
-0.98
-1.30
-1.77
-2.32
-2.87
-3.30
-3.53
-3.56
-3.44
-3.32
-3.31
-3.47
-3.76
-4.06
-4.26
-4.28
-4.15
-3.92
-3.68
-3.51
-3.46
-3.57
-3.85
-4.27
-4.81
-5.41
-6.04
-6.67
-7.28
-7.87
-8.44
-8.95
-9.36
-9.55
-9.36
-8.59
-7.10
-4.89
-2.14
0.86
3.72
6.10
7.76
8.58
8.53
7.61
5.90
3.53
0.71
-2.28
-5.11
-7.48
-9.22
-10.32
-10.91
-11.22
-11.44
-11.72
-12.10
-12.51
-12.90
-13.22
-13.43
-13.53
-13.50
-13.32
-12.98
-12.52
-12.04
-11.67
-11.49
-11.52
-11.67
-11.77
-11.61
-11.04
-9.94
-8.38
-6.50
-4.52
-2.64
-1.02
0.28
1.25
1.89
2.20
2.16
1.83
1.31
0.75
0.25
-0.15
-0.47
-0.80
-1.17
-1.55
-1.94
-2.35
-2.82
-3.43
-4.19
-5.04
-5.90
-6.69
-7.41
-8.14
-8.98
-9.99
-11.19
-12.60
-14.21
-16.01
-17.91
-19.66
-20.99
-21.64
-21.51
-20.80
-19.91
-19.33
-19.44
-20.45
-22.31
-24.82
-27.72
-30.77
-33.74
-36.33
-38.20
-38.96
-38.27
-35.97
-32.13
-26.94
-20.69
-13.57
-5.76
2.49
10.72
18.29
24.51
28.96
31.83
33.80
35.87
38.81
42.83
47.55
52.24
56.34
59.72
62.69
65.64
68.70
71.50
73.38
73.71
72.27
69.31
65.33
60.73
55.56
49.62
42.72
34.98
26.89
19.09
12.11
6.09
0.82
-4.04
-8.70
-13.07
-16.87
-19.79
-21.70
-22.71
-23.07
-23.08
-22.93
-22.72
-22.50
-22.30
-22.15
-22.03
-21.85
-21.48
-20.83
-19.92
-18.95
-18.17
-17.80
-17.92
-18.40
-18.91
-19.07
-18.52
-17.10
-14.90
-12.20
-9.42
-6.97
-5.13
-3.94
-3.25
-2.77
-2.25
-1.58
-0.83
-0.19
0.18
0.24
0.11
0.01
0.09
0.40
0.89
1.44
2.01
2.63
3.38
4.27
5.19
5.92
6.22
6.04
5.49
4.86
4.45
4.43
4.73
5.10
5.26
5.02
4.37
3.49
2.65
2.12
1.99
2.21
2.58
2.90
3.02
2.92
2.66
2.35
2.04
1.72
1.33
0.87
0.39
-0.02
-0.27
-0.36
-0.41
-0.57
-0.96
-1.57
-2.25
-2.82
-3.12
-3.13
-2.96
-2.79
-2.81
-3.07
-3.55
-4.19
-4.89
-5.61
-6.32
-6.99
-7.61
-8.20
-8.83
-9.59
-10.50
-11.54
-12.56
-13.28
-13.40
-12.77
-11.46
-9.79
-8.13
-6.84
-6.16
-6.09
-6.41
-6.78
-6.95
-6.91
-6.86
-7.06
-7.73
-8.96
-10.56
-12.04
-12.84
-12.63
-11.51
-9.95
-8.49
-7.56
-7.30
-7.43
-7.22
-5.70
-2.07
4.12
12.92
24.24
37.83
52.16
64.41
71.57
72.34
67.81
60.51
52.90
46.70
42.52
39.72
36.99
33.04
27.25
19.75
11.36
3.26
-4.12
-10.65
-16.57
-22.22
-27.76
-33.08
-37.96
-41.40
-43.45
-44.38
-44.47
-43.86
-42.51
-40.12
-36.37
-31.17
-24.84
-18.52
-12.56
-7.29
-2.98
0.34
2.97
5.35
7.74
10.12
12.04
13.21
13.45
12.75
11.31
9.52
7.69
5.94
4.07
1.90
-0.32
-2.26
-3.57
-3.96
-3.09
-0.58
3.80
10.09
17.81
26.22
34.26
40.92
44.63
44.64
41.64
37.37
34.73
33.84
33.68
33.08
30.61
25.78
18.77
10.07
0.17
-10.37
-20.18
-27.73
-32.26
-34.19
-34.47
-33.84
-32.61
-30.71
-28.92
-26.98
-24.64
-21.80
-18.49
-14.73
-10.59
-6.35
-2.48
0.92
3.47
4.90
5.19
4.58
3.50
2.39
1.55
1.12
1.12
1.47
1.99
2.43
2.62
2.46
1.98
1.30
0.56
-0.07
-0.48
-0.70
-0.85
-1.07
-1.43
-1.92
-2.43
-2.85
-3.07
-3.13
-3.14
-3.28
-3.68
-4.35
-5.16
-5.89
-6.31
-6.25
-5.68
-4.73
-3.57
-2.38
-1.27
-0.27
0.66
1.54
2.37
3.06
3.57
3.85
3.90
3.75
3.47
3.12
2.77
2.50
2.36
2.38
2.53
2.72
2.85
2.85
2.76
2.71
2.81
3.12
3.53
3.87
3.96
3.74
3.31
2.89
2.61
2.51
2.49
2.40
2.17
1.86
1.57
1.39
1.28
1.14
0.90
0.55
0.18
-0.10
-0.23
-0.23
-0.20
-0.20
-0.27
-0.39
-0.57
-0.82
-1.14
-1.51
-1.91
-2.30
-2.69
-3.14
-3.70
-4.37
-5.04
-5.56
-5.80
-5.75
-5.55
-5.38
-5.44
-5.76
-6.25
-6.76
-7.11
-7.23
-7.06
-6.60
-5.83
-4.78
-3.52
-2.19
-0.96
0.02
0.68
1.02
1.09
0.95
0.62
0.11
-0.55
-1.29
-2.02
-2.65
-3.12
-3.44
-3.60
-3.64
-3.56
-3.43
-3.34
-3.38
-3.61
-3.99
-4.39
-4.67
-4.75
-4.69
-4.63
-4.74
-5.10
-5.60
-6.05
-6.20
-5.93
-5.25
-4.24
-2.98
-1.56
-0.00
1.60
3.10
4.31
5.08
5.38
5.26
4.84
4.22
3.44
2.56
1.66
0.83
0.17
-0.26
-0.47
-0.49
-0.37
-0.10
0.34
0.94
1.66
2.38
2.98
3.37
3.48
3.33
2.96
2.44
1.85
1.27
0.72
0.21
-0.31
-0.88
-1.51
-2.16
-2.70
-3.03
-3.02
-2.64
-1.92
-0.96
0.10
1.16
2.08
2.79
3.28
3.57
3.71
3.77
3.77
3.74
3.61
3.37
2.97
2.44
1.80
1.10
0.39
-0.28
-0.85
-1.28
-1.53
-1.68
-1.84
-2.18
-2.82
-3.71
-4.64
-5.31
-5.43
-4.92
-3.92
-2.70
-1.59
-0.77
-0.31
-0.11
-0.08
-0.14
-0.26
-0.49
-0.86
-1.36
-1.94
-2.49
-2.87
-2.97
-2.72
-2.16
-1.37
-0.51
0.29
0.93
1.42
1.76
1.98
2.05
1.91
1.51
0.81
-0.13
-1.21
-2.32
-3.40
-4.39
-5.23
-5.86
-6.16
-6.04
-5.46
-4.47
-3.21
-1.84
-0.45
0.92
2.24
3.48
4.60
5.48
6.07
6.36
6.39
6.30
6.21
6.18
6.23
6.29
6.28
6.14
5.87
5.54
5.23
4.96
4.70
4.40
3.98
3.44
2.82
2.21
1.70
1.34
1.08
0.87
0.64
0.38
0.11
-0.10
-0.23
-0.31
-0.40
-0.56
-0.83
-1.17
-1.49
-1.72
-1.81
-1.77
-1.62
-1.42
-1.23
-1.09
-1.04
-1.14
-1.43
-1.91
-2.54
-3.24
-3.91
-4.46
-4.85
-5.11
-5.34
-5.66
-6.16
-6.85
-7.57
-8.11
-8.25
-7.83
-6.89
-5.56
-4.07
-2.62
-1.33
-0.22
0.73
1.54
2.15
2.47
2.42
2.01
1.33
0.58
-0.06
-0.43
-0.50
-0.34
-0.04
0.29
0.57
0.79
0.96
1.10
1.20
1.28
1.31
1.25
1.08
0.78
0.31
-0.32
-1.05
-1.77
-2.35
-2.62
-2.47
-1.83
-0.74
0.67
2.20
3.61
4.70
5.37
5.61
5.53
5.25
4.88
4.51
4.18
3.93
3.78
3.74
3.76
3.77
3.69
3.45
3.12
2.82
2.70
2.84
3.18
3.58
3.91
4.10
4.13
4.08
3.97
3.78
3.47
3.03
2.52
2.03
1.64
1.40
1.27
1.23
1.25
1.34
1.49
1.63
1.63
1.39
0.88
0.19
-0.51
-1.05
-1.36
-1.45
-1.42
-1.39
-1.42
-1.56
-1.81
-2.18
-2.65
-3.20
-3.78
-4.35
-4.90
-5.49
-6.16
-6.92
-7.63
-8.06
-7.99
-7.29
-6.02
-4.38
-2.61
-0.91
0.58
1.77
2.59
2.92
2.67
1.87
0.65
-0.77
-2.12
-3.22
-3.97
-4.40
-4.61
-4.72
-4.87
-5.13
-5.54
-6.07
-6.65
-7.22
-7.72
-8.14
-8.50
-8.89
-9.44
-10.30
-11.55
-13.12
-14.64
-15.54
-15.10
-12.74
-8.21
-1.74
6.08
14.47
22.72
30.33
37.00
42.52
46.76
49.61
51.10
51.38
50.75
49.46
47.67
45.36
42.38
38.66
34.27
29.46
24.58
19.99
15.93
12.57
9.95
8.08
6.95
6.45
6.45
6.77
7.20
7.58
7.78
7.73
7.38
6.73
5.78
4.59
3.18
1.59
-0.19
-2.16
-4.33
-6.68
-9.15
-11.67
-14.15
-16.52
-18.75
-20.79
-22.64
-24.22
-25.45
-26.23
-26.52
-26.36
-25.93
-25.48
-25.23
-25.29
-25.56
-25.85
-25.95
-25.77
-25.32
-24.71
-23.97
-23.01
-21.66
-19.76
-17.28
-14.40
-11.44
-8.75
-6.61
-5.11
-4.21
-3.77
-3.61
-3.56
-3.50
-3.34
-3.02
-2.54
-1.94
-1.27
-0.62
-0.08
0.27
0.43
0.48
0.59
0.93
1.59
2.50
3.44
4.15
4.45
4.34
3.96
3.51
3.13
2.87
2.75
2.80
3.11
3.70
4.47
5.21
5.62
5.45
4.68
3.48
2.18
1.08
0.32
-0.10
-0.28
-0.32
-0.27
-0.19
-0.12
-0.16
-0.45
-1.12
-2.30
-3.98
-6.05
-8.38
-10.88
-13.50
-16.23
-19.02
-21.69
-23.92
-25.09
-24.60
-22.22
-18.22
-13.29
-8.27
-3.84
-0.41
1.88
3.47
4.87
6.29
7.55
8.29
8.30
7.66
6.63
5.51
5.14
6.24
8.94
12.76
16.90
20.76
24.13
27.13
29.95
33.66
39.27
47.27
57.39
68.92
81.12
93.49
105.58
111.55
106.98
91.13
68.14
44.15
23.56
7.67
-4.47
-14.49
-23.65
-31.46
-36.75
-38.73
-37.75
-35.20
-32.78
-31.76
-32.55
-34.59
-36.03
-35.02
-30.69
-23.68
-15.81
-8.90
-4.40
-2.86
-4.01
-6.68
-9.65
-12.18
-14.23
-16.20
-18.44
-20.98
-23.55
-25.87
-27.54
-28.38
-28.50
-28.32
-28.29
-28.65
-29.26
-29.77
-29.79
-29.10
-27.72
-25.91
-23.99
-22.12
-20.22
-18.10
-15.76
-13.08
-10.19
-7.31
-4.62
-2.12
0.43
3.39
7.13
11.80
17.08
22.40
26.91
29.78
30.37
28.50
24.51
19.21
13.66
8.99
6.08
5.30
6.40
8.62
10.97
12.58
13.08
12.62
11.79
11.17
11.02
11.24
11.28
10.65
9.13
6.77
3.81
0.57
-2.72
-5.84
-8.57
-10.56
-11.46
-11.05
-9.41
-7.13
-5.01
-3.73
-3.60
-4.45
-5.80
-7.09
-7.95
-8.39
-8.81
-9.68
-11.39
-13.97
-17.06
-20.02
-22.15
-22.90
-22.09
-19.93
-16.88
-13.50
-10.36
-7.61
-5.32
-3.37
-1.55
0.33
2.41
4.75
7.28
9.83
12.19
14.08
15.27
15.62
15.10
13.77
11.79
9.39
6.88
4.56
2.66
1.28
0.35
-0.33
-1.06
-2.10
-3.55
-5.35
-7.29
-9.15
-10.72
-11.82
-12.32
-12.14
-11.33
-10.13
-8.81
-7.77
-7.31
-7.50
-8.12
-8.72
-8.78
-7.89
-5.92
-2.91
0.84
4.91
8.92
12.60
15.91
18.94
21.99
24.60
26.70
28.27
29.31
29.76
29.59
28.76
27.28
25.24
22.73
20.03
17.29
14.65
12.15
9.86
7.82
6.00
4.26
2.35
0.12
-2.49
-5.27
-7.77
-9.43
-9.79
-8.69
-6.38
-3.38
-0.29
2.38
4.27
5.26
5.34
4.61
3.22
1.39
-0.59
-2.40
-3.72
-4.35
-4.20
-3.37
-2.12
-0.78
0.21
0.52
-0.07
-1.53
-3.59
-5.84
-7.83
-9.26
-10.05
-10.35
-10.46
-10.72
-11.37
-12.55
-14.23
-16.22
-18.16
-19.55
-19.83
-18.58
-15.65
-11.23
-5.91
-0.42
4.54
8.51
11.37
13.27
14.51
15.37
16.01
16.42
16.56
16.34
15.79
14.94
13.85
12.51
10.88
8.93
6.67
4.23
1.80
-0.42
-2.34
-3.95
-5.36
-6.68
-7.97
-9.18
-10.15
-10.64
-10.49
-9.63
-8.16
-6.39
-4.66
-3.33
-2.59
-2.46
-2.74
-3.20
-3.59
-3.78
-3.80
-3.73
-3.69
-3.78
-4.04
-4.49
-5.11
-5.89
-6.79
-7.77
-8.81
-9.94
-11.23
-12.75
-14.52
-16.45
-18.35
-20.02
-21.31
-22.20
-22.80
-23.28
-23.82
-24.55
-25.53
-26.66
-27.66
-28.10
-27.47
-25.38
-21.76
-16.85
-11.23
-5.52
-0.19
4.58
8.87
12.81
16.42
19.57
21.98
23.43
23.87
23.46
22.54
21.40
20.28
19.19
18.04
16.68
15.05
13.22
11.33
9.53
7.86
6.23
4.48
2.42
-0.02
-2.82
-5.85
-8.89
-11.68
-13.90
-15.21
-15.32
-14.13
-11.72
-8.43
-4.67
-0.82
2.93
6.51
9.92
13.08
15.82
17.92
19.22
19.74
19.61
19.07
18.29
17.38
16.32
15.03
13.48
11.69
9.79
7.93
6.23
4.73
3.40
2.13
0.76
-0.81
-2.68
-4.86
-7.34
-10.04
-12.75
-15.22
-17.09
-18.02
-17.77
-16.28
-13.64
-10.11
-5.99
-1.61
2.71
6.76
10.38
13.46
15.96
17.88
19.19
19.88
19.94
19.38
18.27
16.72
14.86
12.82
10.72
8.64
6.64
4.73
2.91
1.15
-0.61
-2.49
-4.58
-6.92
-9.48
-12.11
-14.65
-16.93
-18.89
-20.63
-22.30
-24.01
-25.74
-27.19
-27.89
-27.39
-25.38
-21.90
-17.33
-12.19
-7.02
-2.15
2.29
6.32
9.99
13.28
16.12
18.42
20.12
21.25
21.90
22.16
22.11
21.78
21.17
20.31
19.24
18.05
16.88
15.85
15.01
14.32
13.63
12.75
11.55
10.03
8.35
6.77
5.58
4.96
4.94
5.38
6.03
6.59
6.82
6.57
5.86
4.81
3.61
2.40
1.29
0.29
-0.58
-1.29
-1.79
-2.03
-2.04
-1.94
-1.92
-2.15
-2.65
-3.31
-3.97
-4.43
-4.67
-4.79
-4.97
-5.41
-6.15
-7.12
-8.17
-9.15
-10.02
-10.82
-11.68
-12.70
-13.90
-15.21
-16.46
-17.48
-18.19
-18.62
-18.95
-19.39
-20.14
-21.26
-22.71
-24.34
-25.94
-27.28
-28.12
-28.15
-27.11
-24.86
-21.44
-17.15
-12.38
-7.58
-3.06
1.02
4.57
7.58
10.01
11.84
13.12
13.93
14.40
14.61
14.63
14.50
14.27
13.96
13.59
13.11
12.44
11.49
10.24
8.75
7.17
5.65
4.30
3.11
2.01
0.87
-0.41
-1.92
-3.72
-5.81
-8.11
-10.39
-12.26
-13.29
-13.09
-11.50
-8.71
-5.16
-1.43
2.03
4.97
7.40
9.45
11.22
12.71
13.79
14.36
14.42
14.11
13.67
13.25
12.90
12.51
11.95
11.16
10.24
9.37
8.74
8.39
8.23
8.05
7.66
7.04
6.27
5.53
5.00
4.79
4.91
5.34
6.02
6.81
7.54
8.02
8.02
7.49
6.49
5.24
3.99
2.96
2.16
1.52
0.89
0.15
-0.70
-1.59
-2.42
-3.13
-3.72
-4.28
-4.87
-5.56
-6.33
-7.12
-7.89
-8.60
-9.29
-9.99
-10.72
-11.46
-12.18
-12.83
-13.41
-13.95
-14.56
-15.32
-16.27
-17.43
-18.75
-20.14
-21.44
-22.39
-22.67
-21.98
-20.13
-17.17
-13.38
-9.20
-5.06
-1.28
2.01
4.82
7.15
8.97
10.20
10.78
10.76
10.33
9.70
9.08
8.58
8.18
7.82
7.40
6.88
6.23
5.43
4.46
3.33
2.07
0.70
-0.73
-2.20
-3.75
-5.41
-7.23
-9.16
-11.14
-13.02
-14.59
-15.62
-15.86
-15.10
-13.29
-10.55
-7.18
-3.56
-0.00
3.29
6.26
8.88
11.09
12.79
13.84
14.18
13.90
13.19
12.29
11.38
10.54
9.79
9.07
8.32
7.45
6.39
5.08
3.56
1.93
0.33
-1.13
-2.44
-3.67
-4.95
-6.34
-7.91
-9.61
-11.36
-13.04
-14.46
-15.35
-15.41
-14.36
-12.12
-8.84
-4.89
-0.69
3.37
7.06
10.29
13.01
15.22
16.85
17.85
18.19
17.96
17.29
16.38
15.42
14.55
13.84
13.28
12.83
12.42
11.99
11.52
11.03
10.52
9.99
9.40
8.73
8.00
7.31
6.80
6.54
6.51
6.59
6.60
6.41
5.99
5.41
4.76
4.08
3.36
2.52
1.55
0.49
-0.55
-1.45
-2.17
-2.73
-3.18
-3.55
-3.85
-4.07
-4.27
-4.52
-4.94
-5.59
-6.41
-7.26
-8.00
-8.59
-9.11
-9.70
-10.50
-11.53
-12.68
-13.77
-14.66
-15.31
-15.80
-16.27
-16.87
-17.66
-18.63
-19.74
-20.88
-21.88
-22.49
-22.44
-21.45
-19.43
-16.43
-12.66
-8.47
-4.20
-0.17
3.44
6.46
8.84
10.54
11.60
12.09
12.11
11.77
11.18
10.45
9.69
8.98
8.33
7.70
6.99
6.13
5.13
3.98
2.75
1.50
0.24
-1.00
-2.24
-3.50
-4.82
-6.25
-7.84
-9.54
-11.22
-12.65
-13.58
-13.77
-13.16
-11.74
-9.62
-6.89
-3.65
-0.06
3.65
7.15
10.06
12.07
13.07
13.17
12.64
11.85
11.10
10.49
10.03
9.58
9.06
8.38
7.55
6.55
5.33
3.88
2.20
0.43
-1.25
-2.63
-3.62
-4.32
-4.98
-5.89
-7.24
-9.02
-11.03
-12.93
-14.35
-14.99
-14.66
-13.30
-10.98
-7.90
-4.37
-0.69
2.83
6.02
8.78
11.12
13.06
14.61
15.75
16.44
16.67
16.49
16.02
15.39
14.75
14.17
13.69
13.25
12.81
12.35
11.87
11.37
10.86
10.30
9.63
8.82
7.83
6.72
5.61
4.71
4.19
4.16
4.58
5.28
5.95
6.31
6.20
5.59
4.63
3.51
2.40
1.43
0.64
0.03
-0.43
-0.74
-0.93
-1.04
-1.14
-1.31
-1.62
-2.10
-2.76
-3.53
-4.33
-5.06
-5.66
-6.11
-6.49
-6.92
-7.49
-8.28
-9.28
-10.40
-11.53
-12.55
-13.38
-13.99
-14.47
-14.94
-15.56
-16.40
-17.47
-18.60
-19.49
-19.81
-19.24
-17.64
-15.02
-11.58
-7.64
-3.53
0.43
3.98
6.94
9.20
10.71
11.52
11.78
11.65
11.34
10.99
10.71
10.51
10.35
10.18
9.95
9.65
9.27
8.82
8.34
7.84
7.36
6.95
6.61
6.31
5.98
5.59
5.14
4.71
4.41
4.36
4.57
4.96
5.35
5.54
5.41
4.96
4.30
3.62
3.05
2.64
2.33
2.01
1.58
1.02
0.38
-0.25
-0.82
-1.35
-1.91
-2.61
-3.49
-4.50
-5.49
-6.34
-6.99
-7.52
-8.13
-8.96
-10.03
-11.24
-12.36
-13.22
-13.76
-14.11
-14.52
-15.19
-16.22
-17.55
-19.01
-20.34
-21.29
-21.57
-20.94
-19.26
-16.56
-13.07
-9.17
-5.28
-1.72
1.34
3.93
6.15
8.05
9.64
10.87
11.68
12.04
12.01
11.69
11.19
10.59
9.96
9.35
8.81
8.39
8.10
7.91
7.72
7.44
6.96
6.24
5.34
4.36
3.46
2.82
2.57
2.75
3.31
4.09
4.91
5.59
6.06
6.29
6.36
6.32
6.17
5.85
5.31
4.56
3.71
2.91
2.29
1.84
1.47
1.04
0.45
-0.29
-1.07
-1.77
-2.29
-2.66
-2.96
-3.29
-3.73
-4.31
-5.06
-5.97
-7.02
-8.16
-9.29
-10.31
-11.19
-11.96
-12.77
-13.77
-15.05
-16.59
-18.20
-19.62
-20.57
-20.81
-20.24
-18.82
-16.62
-13.76
-10.39
-6.69
-2.89
0.78
4.11
6.91
9.06
10.49
11.26
11.47
11.30
10.98
10.67
10.47
10.36
10.28
10.11
9.74
9.17
8.43
7.64
6.93
6.39
5.97
5.54
4.88
3.83
2.40
0.77
-0.71
-1.65
-1.82
-1.15
0.23
2.09
4.16
6.22
8.12
9.70
10.84
11.48
11.60
11.25
10.55
9.57
8.41
7.09
5.70
4.31
3.03
1.94
1.06
0.34
-0.32
-1.00
-1.76
-2.62
-3.60
-4.75
-6.11
-7.67
-9.34
-10.97
-12.41
-13.59
-14.56
-15.47
-16.49
-17.77
-19.31
-21.02
-22.70
-24.08
-24.85
-24.71
-23.46
-21.03
-17.61
-13.54
-9.26
-5.16
-1.46
1.81
4.73
7.34
9.64
11.50
12.79
13.49
13.64
13.40
12.97
12.46
11.90
11.29
10.56
9.68
8.65
7.48
6.19
4.79
3.33
1.83
0.31
-1.25
-2.87
-4.61
-6.52
-8.65
-10.95
-13.34
-15.55
-17.26
-18.10
-17.79
-16.25
-13.62
-10.25
-6.56
-2.91
0.51
3.64
6.47
8.97
11.05
12.55
13.30
13.28
12.59
11.50
10.30
9.23
8.39
7.74
7.04
6.07
4.67
2.93
1.16
-0.13
-0.45
0.59
3.05
6.71
11.06
15.42
19.09
21.43
22.02
20.78
18.02
14.37
10.66
7.67
5.87
5.45
6.21
7.69
9.30
10.50
10.93
10.49
9.27
7.53
5.73
4.22
3.10
2.25
1.40
0.42
-0.65
-1.63
-2.30
-2.36
-1.71
-0.51
0.81
1.86
2.44
2.61
2.54
2.45
2.75
3.75
5.43
7.55
9.77
11.88
13.69
15.00
14.00
9.74
2.92
-4.09
-8.79
-10.00
-8.14
-4.68
-1.36
0.54
0.97
0.67
0.50
0.91
1.83
2.87
3.67
4.15
4.50
5.26
6.84
9.17
11.74
13.78
14.70
14.19
12.42
9.61
6.43
3.60
1.72
0.98
1.24
2.10
3.06
3.62
3.50
2.83
1.94
1.21
0.94
1.26
2.15
3.58
5.36
7.35
9.50
11.75
13.91
15.64
16.49
15.92
14.27
11.66
8.32
4.54
0.59
-3.36
-7.32
-11.30
-15.32
-19.22
-22.89
-26.16
-28.96
-31.36
-33.56
-35.75
-37.99
-40.13
-41.93
-43.28
-44.24
-45.07
-46.11
-47.68
-49.86
-52.56
-55.52
-58.45
-61.15
-63.43
-65.02
-65.50
-64.37
-61.21
-55.84
-48.43
-39.44
-29.54
-19.33
-9.25
0.47
9.70
18.29
26.08
32.81
38.29
42.45
45.46
47.67
49.48
51.13
52.70
54.12
55.27
56.10
56.59
56.71
56.28
55.01
52.59
49.00
44.68
40.34
36.55
33.46
30.75
27.92
24.70
21.18
17.87
15.40
14.09
13.62
13.26
12.27
10.29
7.52
4.27
1.00
-1.95
-4.44
-6.73
-9.17
-11.99
-15.16
-18.31
-21.20
-23.36
-24.23
-23.44
-21.19
-18.36
-16.54
-17.85
-21.77
-28.23
-36.93
-46.87
-56.03
-62.35
-64.64
-63.18
-59.43
-55.09
-51.68
-49.81
-49.36
-49.75
-50.27
-49.77
-46.68
-39.64
-28.12
-13.27
2.81
17.78
30.90
41.50
49.17
53.36
53.16
47.84
37.44
23.61
9.17
-2.75
-10.15
-12.47
-10.49
-6.11
-1.77
-0.18
-3.56
-12.71
-26.38
-41.65
-54.73
-61.19
-58.68
-48.15
-33.30
-18.33
-5.64
5.11
15.94
28.65
43.13
57.05
67.42
72.57
73.07
71.46
70.40
71.16
73.19
74.88
74.42
71.11
65.68
59.82
55.66
54.52
56.40
60.15
63.86
65.49
64.01
59.69
53.64
47.47
42.00
36.90
31.18
23.91
15.29
7.47
3.37
1.95
0.44
-5.17
-17.17
-34.68
-54.93
-74.82
-91.84
-105.17
-115.22
-121.31
-120.53
-108.19
-82.40
-42.84
4.35
48.40
77.64
84.23
67.94
35.79
-3.36
-34.87
-51.58
-56.12
-55.80
-56.41
-58.73
-59.14
-53.70
-41.68
-26.08
-12.56
-5.17
-3.49
-3.58
-1.06
6.13
16.59
26.70
33.10
33.72
28.84
20.90
12.94
7.18
4.49
4.43
5.77
7.30
7.76
6.61
4.26
1.70
-0.19
-1.11
-1.27
-1.27
-1.53
-2.31
-3.43
-4.47
-5.08
-5.26
-5.34
-5.73
-6.79
-8.61
-11.11
-14.01
-16.81
-18.95
-19.87
-19.16
-16.61
-12.39
-7.05
-1.27
4.28
9.14
13.15
16.43
18.53
19.36
19.00
17.66
15.66
13.31
10.90
8.58
6.42
4.38
2.59
1.15
0.18
-0.21
0.00
0.71
1.68
2.60
3.12
3.10
2.49
1.43
0.17
-0.99
-1.85
-2.38
-2.68
-3.02
-3.63
-4.73
-6.41
-8.58
-10.93
-12.88
-13.79
-13.07
-10.44
-6.01
-0.28
6.04
12.23
17.74
22.29
25.80
28.27
29.65
29.92
29.06
27.19
24.62
21.76
19.01
16.64
14.65
12.90
11.16
9.29
7.28
5.21
3.18
1.20
-0.75
-2.77
-4.89
-7.09
-9.29
-11.41
-13.41
-15.34
-17.26
-19.31
-21.65
-24.32
-27.29
-30.24
-32.68
-33.96
-33.48
-30.93
-26.34
-20.15
-13.03
-5.70
1.24
7.42
12.60
16.70
19.65
21.43
22.10
21.78
20.72
19.19
17.49
15.82
14.29
12.92
11.70
10.60
9.61
8.70
7.83
6.85
5.60
3.93
1.80
-0.67
-3.24
-5.59
-7.54
-9.06
-10.33
-11.63
-13.27
-15.41
-18.09
-21.12
-24.13
-26.54
-27.67
-26.88
-23.80
-18.48
-11.47
-3.65
4.05
10.92
16.60
21.05
24.37
26.65
27.88
28.03
27.16
25.47
23.29
20.95
18.70
16.63
14.77
13.07
11.46
9.96
8.57
7.27
5.98
4.54
2.75
0.50
-2.17
-5.04
-7.79
-10.15
-12.04
-13.60
-15.13
-16.93
-19.19
-21.87
-24.75
-27.43
-29.41
-30.13
-29.07
-25.94
-20.75
-13.93
-6.26
1.39
8.31
14.12
18.75
22.28
24.80
26.25
26.54
25.64
23.78
21.36
18.84
16.58
14.70
13.09
11.54
9.91
8.20
6.50
4.91
3.42
1.91
0.17
-1.92
-4.34
-6.90
-9.33
-11.44
-13.18
-14.69
-16.21
-18.00
-20.20
-22.84
-25.77
-28.67
-31.01
-32.16
-31.45
-28.45
-23.14
-15.99
-7.88
0.17
7.33
13.14
17.52
20.61
22.59
23.59
23.64
22.85
21.43
19.66
17.83
16.09
14.46
12.84
11.18
9.45
7.73
6.09
4.51
2.93
1.23
-0.68
-2.80
-5.10
-7.50
-9.89
-12.21
-14.37
-16.33
-18.13
-19.90
-21.89
-24.32
-27.30
-30.60
-33.67
-35.67
-35.75
-33.37
-28.47
-21.57
-13.51
-5.23
2.51
9.30
14.96
19.46
22.73
24.67
25.23
24.51
22.83
20.67
18.55
16.79
15.48
14.47
13.53
12.48
11.28
9.99
8.69
7.39
5.98
4.33
2.33
-0.01
-2.55
-5.10
-7.52
-9.70
-11.69
-13.57
-15.51
-17.65
-20.15
-23.03
-26.16
-29.18
-31.46
-32.27
-30.95
-27.19
-21.14
-13.43
-4.96
3.35
10.83
17.14
22.20
26.02
28.57
29.79
29.66
28.32
26.13
23.57
21.05
18.86
17.03
15.46
14.04
12.68
11.36
10.10
8.86
7.56
6.05
4.19
1.90
-0.80
-3.74
-6.66
-9.31
-11.52
-13.30
-14.87
-16.56
-18.70
-21.46
-24.77
-28.30
-31.43
-33.43
-33.52
-31.13
-26.08
-18.74
-9.92
-0.73
7.77
14.83
20.17
23.90
26.29
27.58
27.90
27.29
25.86
23.81
21.51
19.31
17.43
15.88
14.49
13.06
11.41
9.54
7.55
5.60
3.75
1.95
0.04
-2.11
-4.55
-7.19
-9.85
-12.32
-14.49
-16.34
-17.99
-19.69
-21.71
-24.27
-27.41
-30.87
-33.99
-35.86
-35.56
-32.51
-26.70
-18.79
-9.85
-1.07
6.64
12.76
17.22
20.23
22.07
22.98
23.11
22.55
21.41
19.84
18.04
16.16
14.30
12.47
10.64
8.80
7.01
5.40
4.01
2.81
1.57
-0.00
-2.11
-4.76
-7.72
-10.66
-13.29
-15.48
-17.34
-19.12
-21.13
-23.58
-26.53
-29.87
-33.22
-36.01
-37.50
-36.95
-33.85
-28.15
-20.29
-11.16
-1.77
6.95
14.43
20.43
25.00
28.25
30.30
31.21
31.02
29.89
28.09
25.99
23.92
22.04
20.37
18.73
16.98
15.07
13.12
11.32
9.82
8.51
7.15
5.42
3.13
0.35
-2.62
-5.40
-7.74
-9.65
-11.36
-13.24
-15.61
-18.67
-22.40
-26.52
-30.43
-33.34
-34.31
-32.59
-27.90
-20.57
-11.52
-1.98
6.92
14.40
20.20
24.42
27.33
29.12
29.91
29.74
28.75
27.14
25.21
23.20
21.26
19.36
17.42
15.41
13.40
11.53
9.96
8.67
7.47
6.03
4.04
1.41
-1.69
-4.91
-7.82
-10.17
-11.95
-13.43
-14.95
-16.87
-19.41
-22.60
-26.29
-30.04
-33.21
-34.92
-34.34
-30.93
-24.66
-16.16
-6.53
2.98
11.31
17.90
22.67
25.84
27.70
28.46
28.22
27.10
25.32
23.17
20.98
18.93
17.03
15.19
13.28
11.32
9.41
7.67
6.17
4.78
3.29
1.47
-0.78
-3.39
-6.16
-8.82
-11.19
-13.21
-14.95
-16.61
-18.42
-20.63
-23.36
-26.54
-29.81
-32.50
-33.71
-32.63
-28.76
-22.21
-13.67
-4.27
4.81
12.66
18.83
23.28
26.18
27.73
28.05
27.24
25.46
23.02
20.32
17.74
15.51
13.71
12.25
11.00
9.82
8.62
7.32
5.87
4.20
2.25
0.02
-2.49
-5.17
-7.91
-10.56
-13.00
-15.16
-17.09
-18.97
-21.08
-23.68
-26.86
-30.37
-33.57
-35.53
-35.33
-32.36
-26.61
-18.65
-9.54
-0.44
7.66
14.18
18.95
22.11
23.93
24.69
24.60
23.84
22.56
20.92
19.07
17.08
14.96
12.71
10.38
8.10
6.07
4.44
3.23
2.26
1.25
-0.10
-1.95
-4.29
-6.98
-9.82
-12.66
-15.38
-17.92
-20.33
-22.73
-25.36
-28.40
-31.83
-35.25
-37.89
-38.73
-36.92
-32.15
-24.76
-15.72
-6.21
2.70
10.37
16.55
21.26
24.63
26.73
27.63
27.42
26.34
24.73
22.92
21.17
19.59
18.17
16.81
15.42
13.97
12.46
10.91
9.32
7.66
5.83
3.74
1.35
-1.29
-4.05
-6.79
-9.37
-11.78
-14.13
-16.67
-19.63
-23.15
-27.05
-30.80
-33.52
-34.29
-32.37
-27.50
-20.06
-10.92
-1.26
7.84
15.61
21.67
26.05
28.96
30.66
31.36
31.18
30.21
28.58
26.50
24.20
21.89
19.70
17.68
15.79
13.98
12.24
10.54
8.90
7.25
5.49
3.50
1.17
-1.53
-4.52
-7.62
-10.64
-13.41
-15.87
-18.16
-20.54
-23.33
-26.68
-30.40
-33.86
-36.13
-36.23
-33.48
-27.81
-19.77
-10.36
-0.73
8.15
15.66
21.51
25.67
28.19
29.21
28.89
27.53
25.54
23.36
21.31
19.54
18.01
16.55
15.02
13.37
11.68
10.05
8.53
7.05
5.46
3.62
1.44
-1.00
-3.56
-6.10
-8.51
-10.81
-13.06
-15.40
-18.00
-20.98
-24.41
-28.20
-31.98
-35.09
-36.65
-35.76
-31.86
-25.00
-15.89
-5.76
4.06
12.51
19.09
23.78
26.86
28.65
29.34
29.01
27.74
25.72
23.28
20.75
18.42
16.39
14.62
13.00
11.43
9.85
8.29
6.78
5.28
3.69
1.83
-0.43
-3.07
-5.92
-8.69
-11.13
-13.15
-14.89
-16.66
-18.80
-21.57
-24.95
-28.72
-32.36
-35.14
-36.23
-34.89
-30.71
-23.82
-14.94
-5.19
4.22
12.34
18.68
23.14
25.85
27.02
26.82
25.50
23.41
21.00
18.67
16.69
15.05
13.59
12.10
10.45
8.67
6.91
5.27
3.77
2.30
0.70
-1.16
-3.33
-5.74
-8.25
-10.72
-13.09
-15.34
-17.58
-19.98
-22.70
-25.88
-29.49
-33.27
-36.63
-38.74
-38.68
-35.79
-29.94
-21.68
-12.06
-2.33
6.51
13.88
19.70
24.11
27.29
29.28
30.07
29.71
28.40
26.51
24.42
22.40
20.53
18.75
16.98
15.17
13.38
11.71
10.17
8.72
7.19
5.40
3.23
0.67
-2.15
-5.03
-7.74
-10.18
-12.36
-14.48
-16.81
-19.62
-23.06
-27.04
-31.11
-34.51
-36.29
-35.54
-31.77
-25.04
-16.06
-5.97
3.96
12.70
19.68
24.76
28.14
30.14
31.02
30.98
30.16
28.73
26.88
24.84
22.78
20.78
18.81
16.78
14.63
12.41
10.25
8.29
6.55
4.94
3.21
1.16
-1.29
-4.05
-6.88
-9.57
-11.99
-14.19
-16.31
-18.57
-21.15
-24.17
-27.57
-31.09
-34.16
-35.94
-35.59
-32.50
-26.61
-18.45
-9.00
0.63
9.51
17.08
23.09
27.49
30.27
31.46
31.19
29.75
27.57
25.14
22.82
20.80
19.03
17.36
15.67
13.89
12.06
10.28
8.58
6.91
5.16
3.20
0.96
-1.55
-4.21
-6.86
-9.38
-11.69
-13.82
-15.90
-18.12
-20.68
-23.77
-27.42
-31.44
-35.33
-38.28
-39.35
-37.73
-33.06
-25.62
-16.29
-6.28
3.20
11.27
17.48
21.80
24.37
25.41
25.14
23.83
21.82
19.52
17.28
15.31
13.64
12.11
10.57
8.92
7.24
5.69
4.40
3.41
2.55
1.55
0.13
-1.85
-4.31
-7.01
-9.63
-11.93
-13.88
-15.60
-17.38
-19.54
-22.34
-25.83
-29.79
-33.67
-36.63
-37.70
-36.07
-31.37
-23.86
-14.36
-4.06
5.84
14.45
21.33
26.44
29.99
32.16
33.03
32.68
31.21
28.94
26.32
23.83
21.75
20.09
18.61
17.01
15.14
13.07
11.00
9.15
7.57
6.08
4.40
2.28
-0.37
-3.42
-6.58
-9.56
-12.15
-14.35
-16.33
-18.38
-20.83
-23.88
-27.49
-31.33
-34.71
-36.71
-36.41
-33.16
-26.91
-18.21
-8.17
1.91
10.93
18.22
23.60
27.22
29.37
30.27
30.09
29.02
27.29
25.21
23.07
21.07
19.21
17.40
15.54
13.62
11.71
9.99
8.55
7.32
6.06
4.47
2.31
-0.42
-3.50
-6.57
-9.30
-11.54
-13.39
-15.09
-17.01
-19.41
-22.44
-26.07
-30.00
-33.71
-36.45
-37.33
-35.63
-30.99
-23.61
-14.26
-4.08
5.75
14.29
20.99
25.74
28.70
30.13
30.30
29.39
27.63
25.28
22.65
20.03
17.66
15.59
13.75
12.00
10.28
8.60
7.03
5.62
4.29
2.87
1.12
-1.11
-3.77
-6.67
-9.48
-11.99
-14.15
-16.10
-18.15
-20.60
-23.64
-27.25
-31.17
-34.86
-37.61
-38.62
-37.25
-33.16
-26.49
-17.87
-8.27
1.26
9.82
16.83
22.08
25.58
27.47
27.92
27.13
25.35
22.91
20.22
17.64
15.39
13.49
11.82
10.22
8.58
6.92
5.35
3.91
2.55
1.12
-0.59
-2.68
-5.13
-7.75
-10.33
-12.70
-14.77
-16.59
-18.28
-20.05
-22.14
-24.81
-28.11
-31.79
-35.18
-37.26
-36.97
-33.59
-27.05
-18.01
-7.67
2.61
11.74
19.12
24.68
28.63
31.22
32.57
32.76
31.87
30.17
28.07
25.96
24.06
22.38
20.69
18.78
16.61
14.34
12.22
10.49
9.16
8.03
6.74
4.96
2.53
-0.50
-3.83
-7.13
-10.09
-12.57
-14.70
-16.74
-19.11
-22.10
-25.82
-30.01
-34.03
-37.00
-37.94
-36.08
-31.13
-23.38
-13.69
-3.28
6.68
15.28
22.03
26.86
29.91
31.43
31.65
30.83
29.22
27.14
24.92
22.77
20.81
18.95
17.05
15.00
12.80
10.59
8.59
6.96
5.68
4.53
3.17
1.29
-1.20
-4.14
-7.20
-10.05
-12.50
-14.62
-16.64
-18.83
-21.47
-24.69
-28.44
-32.44
-36.04
-38.37
-38.44
-35.50
-29.37
-20.59
-10.28
0.16
9.57
17.28
23.11
27.21
29.82
31.09
31.10
30.00
28.04
25.62
23.17
20.97
19.09
17.43
15.78
14.03
12.22
10.49
8.99
7.78
6.69
5.45
3.76
1.47
-1.39
-4.54
-7.66
-10.49
-12.94
-15.15
-17.37
-19.90
-23.00
-26.74
-30.94
-35.05
-38.20
-39.39
-37.77
-32.99
-25.36
-15.86
-5.76
3.70
11.73
18.01
22.66
25.88
27.86
28.61
28.15
26.60
24.26
21.56
18.95
16.70
14.81
13.13
11.46
9.71
7.95
6.35
5.03
3.93
2.77
1.17
-1.16
-4.20
-7.65
-11.01
-13.85
-16.03
-17.69
-19.26
-21.21
-23.89
-27.40
-31.51
-35.70
-39.19
-41.08
-40.54
-37.09
-30.79
-22.21
-12.34
-2.28
7.02
14.92
21.09
25.43
27.95
28.76
28.11
26.42
24.17
21.86
19.81
18.13
16.70
15.34
13.87
12.22
10.47
8.77
7.24
5.92
4.66
3.24
1.42
-0.93
-3.74
-6.77
-9.70
-12.29
-14.49
-16.43
-18.35
-20.59
-23.36
-26.74
-30.52
-34.18
-36.91
-37.79
-36.00
-31.18
-23.59
-14.11
-3.96
5.69
14.03
20.72
25.85
29.62
32.20
33.67
34.01
33.31
31.80
29.81
27.68
25.61
23.59
21.54
19.37
17.12
14.91
12.94
11.30
9.91
8.52
6.79
4.48
1.53
-1.89
-5.43
-8.69
-11.44
-13.67
-15.61
-17.66
-20.22
-23.53
-27.50
-31.70
-35.34
-37.40
-36.98
-33.50
-26.96
-18.02
-7.81
2.44
11.67
19.26
25.03
29.05
31.49
32.48
32.19
30.86
28.83
26.55
24.37
22.51
20.94
19.47
17.88
16.03
13.92
11.72
9.63
7.83
6.30
4.88
3.27
1.20
-1.43
-4.50
-7.70
-10.72
-13.36
-15.63
-17.73
-19.95
-22.55
-25.64
-29.14
-32.65
-35.52
-36.90
-35.98
-32.22
-25.61
-16.75
-6.70
3.32
12.29
19.56
24.89
28.31
29.98
30.08
28.89
26.74
24.10
21.45
19.16
17.40
16.09
14.99
13.79
12.33
10.61
8.78
7.05
5.54
4.23
2.90
1.22
-1.06
-3.97
-7.31
-10.66
-13.65
-16.07
-17.99
-19.75
-21.77
-24.39
-27.67
-31.34
-34.77
-37.09
-37.39
-34.96
-29.55
-21.49
-11.65
-1.21
8.66
17.05
23.50
27.87
30.31
31.09
30.51
28.90
26.65
24.11
21.57
19.22
17.10
15.14
13.22
11.31
9.43
7.68
6.16
4.90
3.78
2.54
0.92
-1.24
-3.92
-6.90
-9.87
-12.58
-14.93
-17.01
-19.06
-21.35
-24.14
-27.51
-31.30
-34.99
-37.79
-38.69
-36.85
-31.82
-23.83
-13.77
-2.95
7.23
15.70
21.89
25.79
27.74
28.22
27.63
26.28
24.38
22.12
19.72
17.38
15.25
13.33
11.54
9.76
7.95
6.20
4.62
3.27
2.04
0.69
-1.08
-3.41
-6.25
-9.36
-12.40
-15.12
-17.43
-19.50
-21.61
-24.09
-27.16
-30.79
-34.68
-38.20
-40.51
-40.73
-38.23
-32.79
-24.76
-14.99
-4.61
5.27
13.78
20.48
25.28
28.32
29.82
30.00
29.04
27.20
24.78
22.10
19.45
16.96
14.66
12.49
10.41
8.47
6.70
5.16
3.75
2.32
0.67
-1.34
-3.70
-6.28
-8.87
-11.32
-13.55
-15.66
-17.85
-20.37
-23.46
-27.19
-31.41
-35.63
-39.03
-40.60
-39.43
-35.01
-27.50
-17.72
-6.94
3.51
12.66
20.02
25.60
29.67
32.50
34.23
34.88
34.49
33.20
31.29
29.05
26.74
24.46
22.22
19.99
17.86
15.95
14.38
13.18
12.18
11.05
9.43
7.07
3.97
0.37
-3.34
-6.76
-9.67
-12.06
-14.14
-16.28
-18.86
-22.16
-26.16
-30.43
-34.20
-36.40
-36.03
-32.49
-25.80
-16.66
-6.25
4.13
13.44
21.05
26.79
30.76
33.12
34.06
33.73
32.35
30.24
27.75
25.18
22.74
20.48
18.35
16.26
14.17
12.12
10.23
8.59
7.21
5.97
4.66
3.01
0.87
-1.80
-4.86
-8.03
-11.02
-13.66
-15.96
-18.13
-20.53
-23.48
-27.14
-31.27
-35.26
-38.13
-38.82
-36.53
-31.02
-22.75
-12.71
-2.20
7.61
15.90
22.33
26.84
29.57
30.65
30.25
28.60
26.11
23.25
20.51
18.19
16.37
14.87
13.47
11.99
10.43
8.90
7.55
6.42
5.41
4.26
2.71
0.58
-2.10
-5.16
-8.28
-11.15
-13.59
-15.65
-17.56
-19.70
-22.44
-25.95
-30.09
-34.30
-37.69
-39.28
-38.19
-33.99
-26.78
-17.28
-6.60
3.99
13.41
20.95
26.31
29.59
31.05
31.01
29.82
27.79
25.28
22.61
20.07
17.79
15.76
13.86
11.98
10.12
8.32
6.72
5.34
4.10
2.82
1.29
-0.64
-2.96
-5.54
-8.19
-10.75
-13.15
-15.42
-17.72
-20.25
-23.21
-26.71
-30.68
-34.75
-38.23
-40.18
-39.65
-36.03
-29.27
-20.05
-9.51
1.00
10.41
18.08
23.82
27.71
29.91
30.56
29.80
27.88
25.18
22.19
19.31
16.81
14.73
12.97
11.42
9.96
8.58
7.28
6.01
4.70
3.21
1.39
-0.90
-3.63
-6.66
-9.74
-12.59
-15.05
-17.14
-19.07
-21.18
-23.80
-27.07
-30.88
-34.74
-37.83
-39.18
-37.88
-33.44
-25.96
-16.22
-5.46
4.96
13.92
20.77
25.32
27.80
28.59
28.11
26.76
24.89
22.76
20.59
18.48
16.48
14.58
12.77
11.05
9.44
7.93
6.50
5.06
3.47
1.58
-0.70
-3.39
-6.34
-9.33
-12.14
-14.63
-16.87
-19.05
-21.47
-24.38
-27.89
-31.91
-36.04
-39.61
-41.74
-41.56
-38.42
-32.21
-23.45
-13.14
-2.56
7.18
15.32
21.59
26.02
28.80
30.14
30.25
29.33
27.69
25.63
23.45
21.33
19.33
17.42
15.52
13.62
11.79
10.13
8.74
7.57
6.44
5.08
3.22
0.74
-2.25
-5.46
-8.55
-11.29
-13.67
-15.91
-18.38
-21.42
-25.23
-29.70
-34.29
-38.11
-40.05
-39.10
-34.71
-27.04
-16.95
-5.81
5.02
14.51
22.18
28.02
32.25
35.11
36.68
37.00
36.15
34.36
31.99
29.40
26.87
24.50
22.26
20.06
17.88
15.77
13.85
12.17
10.71
9.28
7.60
5.45
2.73
-0.45
-3.83
-7.10
-10.07
-12.69
-15.11
-17.62
-20.50
-23.97
-28.00
-32.28
-36.11
-38.56
-38.62
-35.59
-29.31
-20.33
-9.73
1.17
11.20
19.56
25.92
30.26
32.75
33.61
33.10
31.51
29.21
26.59
23.97
21.56
19.42
17.53
15.83
14.28
12.86
11.55
10.28
8.95
7.43
5.60
3.37
0.75
-2.15
-5.20
-8.19
-11.03
-13.66
-16.13
-18.62
-21.38
-24.64
-28.52
-32.81
-36.89
-39.78
-40.35
-37.70
-31.55
-22.43
-11.54
-0.37
9.77
18.05
24.22
28.43
30.95
32.00
31.77
30.44
28.30
25.73
23.12
20.69
18.51
16.45
14.37
12.24
10.13
8.26
6.80
5.75
4.90
3.91
2.43
0.27
-2.53
-5.71
-8.94
-11.94
-14.60
-16.96
-19.28
-21.84
-24.94
-28.71
-33.00
-37.23
-40.49
-41.72
-40.01
-34.96
-26.84
-16.56
-5.46
5.13
14.23
21.34
26.42
29.69
31.36
31.63
30.66
28.68
26.08
23.29
20.69
18.48
16.63
14.95
13.24
11.40
9.49
7.62
5.89
4.28
2.62
0.67
-1.77
-4.74
-8.04
-11.33
-14.27
-16.68
-18.63
-20.36
-22.25
-24.63
-27.72
-31.52
-35.74
-39.72
-42.46
-42.83
-39.93
-33.49
-24.04
-12.87
-1.54
8.56
16.62
22.45
26.31
28.55
29.45
29.17
27.84
25.71
23.15
20.57
18.26
16.33
14.67
13.06
11.35
9.54
7.77
6.22
4.96
3.86
2.64
0.98
-1.26
-4.01
-6.99
-9.89
-12.49
-14.73
-16.76
-18.83
-21.24
-24.24
-27.93
-32.09
-36.08
-38.92
-39.49
-36.90
-30.90
-21.99
-11.32
-0.28
9.93
18.57
25.38
30.41
33.80
35.62
35.95
34.96
32.99
30.51
27.98
25.68
23.66
21.78
19.84
17.70
15.39
13.08
10.96
9.16
7.67
6.30
4.79
2.87
0.44
-2.44
-5.53
-8.53
-11.24
-13.65
-15.99
-18.62
-21.88
-25.92
-30.54
-35.14
-38.76
-40.33
-38.92
-34.10
-26.11
-15.83
-4.57
6.32
15.80
23.29
28.69
32.17
34.00
34.44
33.70
32.01
29.70
27.14
24.64
22.35
20.27
18.24
16.16
14.01
11.91
10.04
8.50
7.22
5.96
4.41
2.33
-0.36
-3.48
-6.75
-9.84
-12.53
-14.77
-16.75
-18.80
-21.32
-24.60
-28.69
-33.24
-37.50
-40.44
-40.97
-38.30
-32.23
-23.26
-12.43
-1.13
9.37
18.14
24.74
29.15
31.62
32.47
31.98
30.45
28.15
25.45
22.70
20.17
17.96
15.99
14.06
12.04
9.92
7.82
5.94
4.41
3.14
1.94
0.49
-1.44
-3.92
-6.83
-9.90
-12.85
-15.51
-17.89
-20.18
-22.70
-25.76
-29.47
-33.61
-37.58
-40.46
-41.25
-39.19
-33.96
-25.83
-15.68
-4.65
6.03
15.37
22.73
27.88
30.84
31.85
31.25
29.45
26.92
24.10
21.35
18.85
16.65
14.66
12.80
11.03
9.38
7.88
6.52
5.17
3.65
1.82
-0.36
-2.81
-5.39
-7.98
-10.50
-12.97
-15.41
-17.88
-20.47
-23.32
-26.63
-30.54
-34.96
-39.38
-42.84
-44.20
-42.44
-37.10
-28.51
-17.74
-6.23
4.60
13.76
20.77
25.60
28.47
29.66
29.41
28.00
25.75
23.05
20.29
17.73
15.49
13.53
11.76
10.09
8.54
7.17
5.99
4.99
4.00
2.80
1.17
-1.03
-3.77
-6.83
-9.89
-12.69
-15.07
-17.12
-19.13
-21.51
-24.63
-28.60
-33.14
-37.52
-40.67
-41.45
-39.02
-33.13
-24.24
-13.41
-1.98
8.77
17.96
25.18
30.37
33.70
35.39
35.70
34.88
33.26
31.18
29.00
26.95
25.09
23.32
21.44
19.30
16.90
14.40
12.08
10.15
8.63
7.31
5.80
3.76
1.04
-2.25
-5.79
-9.22
-12.29
-14.96
-17.42
-20.01
-23.08
-26.91
-31.48
-36.35
-40.68
-43.30
-43.09
-39.30
-31.93
-21.74
-10.08
1.54
11.91
20.33
26.68
31.12
33.89
35.17
35.06
33.71
31.41
28.58
25.69
23.09
20.90
19.04
17.34
15.64
13.88
12.13
10.46
8.86
7.21
5.30
2.94
0.06
-3.21
-6.58
-9.73
-12.47
-14.81
-16.98
-19.31
-22.11
-25.59
-29.74
-34.34
-38.85
-42.47
-44.19
-43.07
-38.53
-30.62
-20.11
-8.31
3.30
13.55
21.75
27.74
31.69
33.87
34.50
33.80
32.00
29.48
26.68
23.99
21.64
19.63
17.80
16.01
14.18
12.41
10.86
9.64
8.64
7.60
6.12
3.88
0.84
-2.77
-6.48
-9.83
-12.54
-14.64
-16.41
-18.31
-20.75
-24.01
-28.12
-32.76
-37.27
-40.71
-41.99
-40.22
-34.99
-26.61
-16.01
-4.54
6.44
15.93
23.38
28.67
31.90
33.30
33.12
31.65
29.31
26.56
23.81
21.31
19.12
17.13
15.19
13.21
11.21
9.28
7.50
5.90
4.37
2.74
0.85
-1.42
-4.07
-7.01
-10.07
-13.09
-15.95
-18.62
-21.18
-23.81
-26.76
-30.27
-34.36
-38.74
-42.65
-45.00
-44.67
-40.89
-33.65
-23.71
-12.46
-1.38
8.37
16.25
22.27
26.66
29.64
31.23
31.37
30.10
27.78
24.98
22.32
20.17
18.55
17.17
15.67
13.86
11.82
9.82
8.08
6.64
5.25
3.53
1.22
-1.74
-5.09
-8.42
-11.38
-13.82
-15.89
-17.90
-20.25
-23.21
-26.90
-31.22
-35.85
-40.20
-43.42
-44.55
-42.72
-37.51
-29.17
-18.60
-7.14
3.87
13.48
21.24
27.19
31.56
34.55
36.23
36.60
35.76
33.97
31.63
29.19
26.92
24.91
23.07
21.27
19.46
17.68
16.00
14.47
12.99
11.36
9.37
6.88
3.89
0.56
-2.86
-6.14
-9.13
-11.82
-14.30
-16.78
-19.59
-23.05
-27.32
-32.21
-37.05
-40.77
-42.13
-40.19
-34.62
-25.91
-15.17
-3.78
7.02
16.42
24.08
29.99
34.20
36.75
37.66
37.02
35.09
32.33
29.31
26.51
24.22
22.43
20.92
19.37
17.57
15.50
13.33
11.28
9.48
7.87
6.18
4.10
1.43
-1.80
-5.34
-8.83
-11.94
-14.53
-16.68
-18.67
-20.88
-23.70
-27.36
-31.84
-36.66
-40.92
-43.48
-43.20
-39.40
-32.09
-22.02
-10.45
1.20
11.76
20.47
27.04
31.49
34.02
34.86
34.28
32.57
30.10
27.26
24.43
21.89
19.75
17.98
16.42
14.89
13.28
11.58
9.86
8.21
6.66
5.08
3.23
0.91
-1.98
-5.29
-8.73
-11.90
-14.57
-16.71
-18.62
-20.74
-23.56
-27.38
-32.15
-37.35
-42.02
-44.94
-44.95
-41.34
-34.11
-23.96
-12.18
-0.23
10.63
19.58
26.27
30.70
33.11
33.80
33.12
31.46
29.17
26.58
23.90
21.24
18.63
16.07
13.61
11.36
9.45
8.00
7.03
6.41
5.85
4.99
3.46
1.07
-2.12
-5.80
-9.55
-12.95
-15.77
-18.04
-20.01
-22.07
-24.64
-27.96
-32.02
-36.40
-40.29
-42.56
-42.15
-38.35
-31.16
-21.29
-10.01
1.29
11.47
19.84
26.17
30.48
32.90
33.56
32.68
30.61
27.88
25.06
22.57
20.56
18.86
17.18
15.27
13.09
10.86
8.84
7.25
6.07
5.06
3.87
2.14
-0.23
-3.19
-6.42
-9.62
-12.55
-15.15
-17.58
-20.10
-23.05
-26.65
-30.96
-35.69
-40.23
-43.64
-44.82
-42.83
-37.26
-28.40
-17.29
-5.40
5.83
15.36
22.74
28.01
31.44
33.28
33.69
32.77
30.72
27.92
24.87
21.99
19.53
17.43
15.50
13.53
11.50
9.49
7.71
6.22
4.93
3.55
1.73
-0.73
-3.81
-7.26
-10.72
-13.88
-16.59
-18.95
-21.20
-23.72
-26.84
-30.76
-35.38
-40.17
-44.15
-46.12
-44.98
-40.15
-31.82
-20.92
-8.92
2.66
12.63
20.35
25.71
28.97
30.52
30.75
29.96
28.40
26.27
23.83
21.30
18.89
16.72
14.76
12.91
11.07
9.20
7.39
5.79
4.47
3.29
1.99
0.19
-2.33
-5.57
-9.29
-13.08
-16.58
-19.65
-22.35
-25.01
-27.99
-31.58
-35.81
-40.33
-44.35
-46.83
-46.73
-43.35
-36.58
-27.02
-15.76
-4.07
6.93
16.48
24.18
29.95
33.83
35.99
36.63
36.07
34.67
32.79
30.71
28.56
26.37
24.10
21.77
19.48
17.39
15.64
14.25
13.05
11.72
9.97
7.60
4.63
1.27
-2.17
-5.46
-8.48
-11.28
-14.02
-16.90
-20.13
-23.89
-28.22
-32.91
-37.41
-40.84
-42.14
-40.39
-35.18
-26.81
-16.24
-4.80
6.21
15.86
23.71
29.70
33.96
36.62
37.76
37.49
36.06
33.83
31.24
28.64
26.25
24.06
21.96
19.83
17.68
15.62
13.80
12.29
10.98
9.56
7.68
5.11
1.83
-1.90
-5.67
-9.11
-12.04
-14.57
-16.99
-19.69
-22.99
-27.06
-31.77
-36.64
-40.84
-43.26
-42.88
-39.02
-31.68
-21.59
-10.00
1.68
12.28
21.07
27.77
32.40
35.12
36.10
35.57
33.86
31.43
28.74
26.17
23.93
22.00
20.22
18.40
16.44
14.37
12.32
10.44
8.77
7.21
5.54
3.48
0.87
-2.26
-5.65
-8.96
-11.87
-14.31
-16.42
-18.57
-21.16
-24.51
-28.70
-33.47
-38.21
-41.96
-43.61
-42.18
-37.17
-28.76
-17.87
-5.90
5.67
15.67
23.47
28.94
32.32
33.90
33.97
32.78
30.63
27.90
24.98
22.21
19.73
17.51
15.41
13.29
11.15
9.10
7.29
5.80
4.52
3.20
1.54
-0.66
-3.43
-6.60
-9.87
-12.96
-15.71
-18.13
-20.43
-22.91
-25.92
-29.66
-34.07
-38.74
-42.84
-45.29
-45.00
-41.25
-34.00
-23.94
-12.35
-0.70
9.76
18.29
24.61
28.83
31.15
31.76
30.88
28.79
25.96
22.89
20.03
17.60
15.55
13.70
11.85
9.97
8.18
6.65
5.48
4.53
3.51
2.04
-0.13
-3.03
-6.43
-9.96
-13.28
-16.17
-18.67
-20.98
-23.46
-26.44
-30.13
-34.51
-39.19
-43.42
-46.18
-46.39
-43.25
-36.55
-26.79
-15.15
-3.10
7.93
16.96
23.56
27.81
30.06
30.76
30.29
28.98
27.12
25.00
22.83
20.75
18.77
16.80
14.77
12.69
10.67
8.88
7.38
6.12
4.91
3.47
1.58
-0.80
-3.52
-6.34
-9.02
-11.44
-13.69
-15.98
-18.59
-21.76
-25.59
-30.04
-34.70
-38.89
-41.60
-41.75
-38.48
-31.58
-21.58
-9.73
2.39
13.38
22.35
29.02
33.59
36.37
37.67
37.67
36.57
34.64
32.25
29.80
27.53
25.47
23.51
21.46
19.25
16.95
14.73
12.73
10.94
9.20
7.26
4.94
2.20
-0.85
-3.99
-7.04
-9.91
-12.64
-15.37
-18.28
-21.59
-25.46
-29.88
-34.54
-38.71
-41.34
-41.30
-37.82
-30.78
-20.86
-9.30
2.45
13.14
21.99
28.67
33.21
35.80
36.68
36.13
34.47
32.09
29.34
26.52
23.77
21.15
18.66
16.31
14.15
12.26
10.70
9.38
8.13
6.68
4.78
2.30
-0.69
-3.95
-7.18
-10.11
-12.65
-14.91
-17.16
-19.76
-23.00
-27.00
-31.62
-36.35
-40.36
-42.59
-42.03
-38.01
-30.51
-20.25
-8.52
3.17
13.53
21.75
27.58
31.17
32.84
32.93
31.73
29.55
26.77
23.77
20.88
18.32
16.11
14.17
12.40
10.73
9.15
7.68
6.30
4.94
3.48
1.78
-0.28
-2.72
-5.50
-8.48
-11.48
-14.34
-17.02
-19.59
-22.32
-25.52
-29.36
-33.73
-38.04
-41.27
-42.23
-39.93
-33.97
-24.79
-13.48
-1.54
9.63
19.00
26.08
30.81
33.39
34.11
33.34
31.47
28.95
26.22
23.59
21.16
18.91
16.69
14.45
12.22
10.11
8.21
6.55
5.02
3.46
1.69
-0.41
-2.87
-5.65
-8.66
-11.76
-14.82
-17.74
-20.54
-23.39
-26.59
-30.38
-34.81
-39.46
-43.45
-45.56
-44.57
-39.75
-31.16
-19.74
-7.09
5.06
15.34
23.05
28.12
30.94
31.95
31.54
29.96
27.50
24.51
21.44
18.69
16.41
14.52
12.75
10.87
8.84
6.77
4.87
3.27
1.88
0.48
-1.23
-3.41
-6.03
-8.93
-11.87
-14.69
-17.36
-20.00
-22.85
-26.18
-30.16
-34.72
-39.41
-43.40
-45.52
-44.67
-40.16
-32.05
-21.20
-9.04
2.84
13.13
21.14
26.73
30.12
31.68
31.76
30.65
28.64
26.06
23.28
20.59
18.13
15.89
13.75
11.62
9.53
7.58
5.88
4.43
3.06
1.53
-0.40
-2.78
-5.51
-8.38
-11.17
-13.82
-16.38
-19.02
-21.95
-25.36
-29.36
-33.91
-38.60
-42.66
-44.95
-44.33
-40.05
-32.12
-21.41
-9.38
2.40
12.76
21.16
27.58
32.26
35.43
37.18
37.54
36.64
34.79
32.45
30.03
27.79
25.78
23.87
21.92
19.86
17.74
15.69
13.80
12.05
10.30
8.32
5.93
3.10
-0.05
-3.30
-6.44
-9.41
-12.33
-15.47
-19.11
-23.41
-28.28
-33.29
-37.69
-40.45
-40.55
-37.26
-30.42
-20.61
-9.03
2.81
13.56
22.35
28.94
33.50
36.39
37.90
38.15
37.22
35.23
32.49
29.42
26.46
23.83
21.57
19.54
17.56
15.56
13.62
11.87
10.34
8.91
7.27
5.11
2.22
-1.28
-5.09
-8.76
-11.99
-14.70
-17.10
-19.57
-22.51
-26.18
-30.55
-35.16
-39.19
-41.53
-41.09
-37.17
-29.71
-19.46
-7.72
3.97
14.35
22.63
28.60
32.40
34.35
34.74
33.85
31.94
29.35
26.46
23.64
21.12
18.92
16.92
14.90
12.74
10.46
8.21
6.19
4.48
2.97
1.37
-0.60
-3.11
-6.06
-9.17
-12.11
-14.66
-16.84
-18.88
-21.16
-24.05
-27.76
-32.21
-36.92
-41.02
-43.38
-42.94
-39.02
-31.64
-21.53
-9.98
1.58
11.93
20.37
26.62
30.75
32.95
33.44
32.44
30.28
27.38
24.23
21.27
18.74
16.67
14.89
13.19
11.42
9.61
7.92
6.48
5.29
4.14
2.69
0.65
-2.10
-5.38
-8.79
-11.97
-14.72
-17.11
-19.46
-22.14
-25.49
-29.56
-34.14
-38.64
-42.18
-43.75
-42.41
-37.64
-29.54
-18.90
-7.03
4.61
14.79
22.79
28.39
31.79
33.34
33.43
32.35
30.35
27.68
24.65
21.55
18.67
16.17
14.08
12.31
10.73
9.22
7.69
6.11
4.44
2.62
0.57
-1.76
-4.37
-7.17
-9.98
-12.64
-15.05
-17.26
-19.45
-21.94
-25.04
-28.91
-33.34
-37.70
-40.93
-41.86
-39.53
-33.56
-24.36
-13.00
-0.98
10.26
19.65
26.68
31.32
33.87
34.70
34.14
32.50
30.07
27.22
24.29
21.56
19.15
17.00
14.98
13.00
11.07
9.30
7.75
6.38
4.98
3.25
0.98
-1.88
-5.10
-8.37
-11.34
-13.87
-16.02
-18.08
-20.45
-23.50
-27.44
-32.17
-37.20
-41.62
-44.23
-43.89
-39.87
-32.16
-21.58
-9.54
2.37
12.82
21.07
26.90
30.52
32.25
32.41
31.28
29.21
26.58
23.79
21.14
18.73
16.49
14.27
11.97
9.66
7.51
5.69
4.22
2.93
1.52
-0.31
-2.71
-5.60
-8.72
-11.78
-14.56
-17.08
-19.52
-22.19
-25.40
-29.36
-33.99
-38.86
-43.15
-45.75
-45.56
-41.83
-34.44
-24.09
-12.10
-0.05
10.64
19.09
25.05
28.75
30.64
31.15
30.52
28.92
26.53
23.66
20.67
17.90
15.52
13.51
11.73
10.04
8.39
6.80
5.29
3.81
2.20
0.29
-2.03
-4.76
-7.77
-10.93
-14.08
-17.17
-20.23
-23.35
-26.73
-30.58
-34.99
-39.72
-44.09
-47.03
-47.33
-44.09
-37.10
-27.00
-15.11
-2.99
7.98
16.97
23.72
28.39
31.32
32.82
33.13
32.43
30.94
28.92
26.64
24.34
22.17
20.18
18.34
16.58
14.84
13.09
11.37
9.70
8.10
6.48
4.70
2.59
0.06
-2.83
-5.90
-8.92
-11.82
-14.71
-17.94
-21.85
-26.62
-31.92
-36.93
-40.44
-41.22
-38.43
-31.94
-22.38
-10.94
0.94
12.02
21.49
29.00
34.56
38.32
40.42
40.99
40.17
38.25
35.67
32.86
30.12
27.56
25.09
22.61
20.08
17.63
15.46
13.71
12.33
11.08
9.60
7.59
4.90
1.61
-2.00
-5.65
-9.08
-12.20
-15.10
-17.99
-21.18
-24.91
-29.28
-34.04
-38.57
-41.87
-42.80
-40.42
-34.34
-24.96
-13.40
-1.15
10.30
19.91
27.20
32.18
35.09
36.26
35.97
34.52
32.25
29.56
26.84
24.30
22.00
19.81
17.60
15.31
13.03
10.95
9.25
7.98
6.99
5.97
4.54
2.45
-0.33
-3.60
-6.99
-10.16
-12.93
-15.35
-17.67
-20.28
-23.49
-27.49
-32.10
-36.79
-40.60
-42.39
-41.08
-36.11
-27.67
-16.74
-4.81
6.59
16.31
23.78
29.00
32.23
33.78
33.85
32.61
30.34
27.42
24.33
21.45
18.98
16.90
15.01
13.15
11.26
9.41
7.73
6.30
5.08
3.85
2.37
0.39
-2.16
-5.18
-8.41
-11.55
-14.36
-16.75
-18.86
-20.99
-23.55
-26.82
-30.83
-35.20
-39.13
-41.49
-41.18
-37.43
-30.17
-20.08
-8.49
3.06
13.27
21.36
27.17
30.90
32.87
33.31
32.37
30.20
27.13
23.62
20.19
17.21
14.80
12.79
10.94
9.07
7.19
5.45
3.98
2.80
1.70
0.39
-1.43
-3.83
-6.67
-9.64
-12.44
-14.92
-17.13
-19.32
-21.76
-24.71
-28.25
-32.26
-36.35
-39.81
-41.65
-40.88
-36.77
-29.23
-18.88
-7.01
4.90
15.50
23.94
29.91
33.48
34.93
34.59
32.85
30.15
26.95
23.68
20.64
17.93
15.51
13.24
11.05
8.94
7.02
5.39
4.11
3.10
2.14
0.94
-0.77
-3.08
-5.91
-9.00
-12.03
-14.81
-17.30
-19.73
-22.38
-25.59
-29.47
-33.86
-38.18
-41.47
-42.58
-40.52
-34.81
-25.73
-14.35
-2.20
9.18
18.65
25.65
30.18
32.51
32.99
31.96
29.74
26.72
23.35
20.05
17.08
14.53
12.32
10.31
8.44
6.74
5.25
4.00
2.87
1.69
0.29
-1.46
-3.57
-5.94
-8.44
-10.96
-13.43
-15.91
-18.50
-21.39
-24.75
-28.67
-33.01
-37.34
-40.88
-42.64
-41.67
-37.37
-29.79
-19.70
-8.37
2.75
12.43
19.96
25.21
28.39
29.87
29.96
28.90
26.86
24.07
20.82
17.48
14.36
11.67
9.50
7.80
6.44
5.32
4.32
3.34
2.25
0.90
-0.88
-3.18
-5.97
-9.04
-12.09
-14.82
-17.13
-19.15
-21.22
-23.80
-27.22
-31.50
-36.20
-40.41
-42.87
-42.35
-38.09
-30.08
-19.15
-6.75
5.51
16.30
24.87
31.03
34.98
37.06
37.56
36.78
35.01
32.63
30.04
27.57
25.33
23.28
21.24
19.11
16.86
14.62
12.58
10.81
9.22
7.53
5.46
2.81
-0.37
-3.80
-7.12
-10.02
-12.44
-14.56
-16.74
-19.40
-22.83
-27.10
-31.93
-36.66
-40.31
-41.72
-39.90
-34.35
-25.34
-13.89
-1.55
10.14
19.99
27.45
32.48
35.35
36.37
35.80
33.91
31.07
27.78
24.55
21.76
19.49
17.60
15.85
14.06
12.23
10.49
9.00
7.79
6.70
5.49
3.90
1.79
-0.79
-3.65
-6.58
-9.42
-12.15
-14.84
-17.67
-20.82
-24.44
-28.56
-32.97
-37.11
-40.04
-40.65
-37.98
-31.63
-21.96
-10.14
2.29
13.79
23.23
30.10
34.38
36.37
36.45
35.00
32.38
28.98
25.23
21.56
18.28
15.56
13.40
11.67
10.17
8.75
7.35
5.97
4.67
3.40
2.04
0.40
-1.69
-4.27
-7.22
-10.26
-13.14
-15.71
-18.05
-20.44
-23.22
-26.69
-30.83
-35.24
-39.10
-41.30
-40.80
-36.88
-29.51
-19.38
-7.74
3.95
14.43
22.91
29.06
32.89
34.61
34.47
32.82
30.09
26.82
23.54
20.63
18.20
16.11
14.13
12.07
9.96
7.97
6.29
4.94
3.77
2.48
0.80
-1.37
-3.92
-6.61
-9.20
-11.59
-13.83
-16.11
-18.62
-21.56
-25.09
-29.25
-33.86
-38.41
-41.97
-43.37
-41.53
-35.91
-26.74
-15.07
-2.45
9.51
19.60
27.20
32.24
35.00
35.86
35.19
33.32
30.61
27.42
24.14
21.06
18.31
15.91
13.74
11.70
9.77
7.99
6.46
5.16
3.99
2.69
1.02
-1.21
-4.00
-7.18
-10.49
-13.66
-16.55
-19.17
-21.76
-24.61
-28.02
-32.03
-36.33
-40.12
-42.31
-41.73
-37.61
-29.86
-19.16
-6.90
5.31
16.01
24.28
29.83
32.89
33.94
33.45
31.81
29.29
26.12
22.63
19.16
16.03
13.38
11.20
9.30
7.53
5.83
4.27
2.89
1.65
0.34
-1.32
-3.51
-6.24
-9.25
-12.21
-14.83
-17.05
-19.05
-21.24
-24.03
-27.72
-32.29
-37.27
-41.77
-44.58
-44.51
-40.75
-33.22
-22.64
-10.34
2.08
13.21
22.14
28.49
32.33
34.00
33.91
32.49
30.16
27.30
24.25
21.22
18.31
15.51
12.84
10.35
8.14
6.33
4.91
3.79
2.69
1.33
-0.51
-2.89
-5.67
-8.63
-11.53
-14.22
-16.73
-19.22
-21.97
-25.27
-29.30
-33.96
-38.82
-43.06
-45.56
-45.24
-41.36
-33.84
-23.36
-11.22
1.08
12.23
21.40
28.30
33.00
35.76
36.86
36.54
35.08
32.85
30.24
27.59
25.10
22.79
20.56
18.31
16.01
13.75
11.65
9.84
8.28
6.83
5.25
3.33
0.98
-1.76
-4.70
-7.66
-10.51
-13.27
-16.10
-19.28
-23.07
-27.59
-32.66
-37.62
-41.43
-42.86
-40.87
-35.05
-25.78
-14.22
-1.87
9.80
19.79
27.66
33.38
37.12
39.04
39.31
38.11
35.80
32.83
29.71
26.82
24.27
22.02
19.87
17.72
15.59
13.61
11.95
10.64
9.51
8.24
6.49
4.05
0.94
-2.57
-6.16
-9.54
-12.59
-15.40
-18.23
-21.36
-25.10
-29.53
-34.37
-38.97
-42.28
-43.12
-40.55
-34.23
-24.60
-12.79
-0.33
11.33
21.14
28.60
33.68
36.60
37.66
37.14
35.31
32.50
29.14
25.68
22.51
19.83
17.60
15.62
13.69
11.73
9.84
8.22
6.96
5.94
4.85
3.30
1.02
-1.95
-5.31
-8.67
-11.72
-14.37
-16.79
-19.32
-22.31
-26.00
-30.36
-35.05
-39.30
-42.10
-42.34
-39.23
-32.54
-22.81
-11.16
0.93
12.09
21.33
28.19
32.64
34.93
35.46
34.57
32.61
29.88
26.69
23.34
20.10
17.17
14.63
12.48
10.66
9.11
7.78
6.58
5.37
3.96
2.18
-0.05
-2.72
-5.67
-8.72
-11.67
-14.39
-16.84
-19.14
-21.51
-24.30
-27.78
-32.01
-36.61
-40.69
-43.04
-42.42
-38.07
-30.01
-19.10
-6.83
5.16
15.55
23.58
29.12
32.40
33.82
33.72
32.39
30.08
27.11
23.85
20.65
17.73
15.15
12.86
10.78
8.87
7.18
5.79
4.70
3.81
2.86
1.54
-0.41
-3.03
-6.17
-9.51
-12.73
-15.64
-18.28
-20.88
-23.79
-27.31
-31.52
-36.13
-40.38
-43.15
-43.26
-39.78
-32.47
-21.96
-9.63
2.81
13.85
22.49
28.48
32.06
33.70
33.87
32.86
30.91
28.26
25.23
22.15
19.29
16.76
14.55
12.57
10.75
9.08
7.57
6.18
4.76
3.12
1.07
-1.46
-4.33
-7.32
-10.14
-12.64
-14.84
-16.97
-19.39
-22.44
-26.33
-30.95
-35.79
-39.94
-42.26
-41.64
-37.41
-29.61
-19.04
-7.08
4.75
15.12
23.26
28.94
32.33
33.82
33.77
32.51
30.36
27.58
24.50
21.37
18.38
15.61
13.05
10.68
8.53
6.64
5.04
3.71
2.51
1.23
-0.35
-2.39
-4.86
-7.60
-10.38
-13.03
-15.53
-18.04
-20.84
-24.22
-28.33
-32.99
-37.64
-41.35
-43.01
-41.63
-36.68
-28.35
-17.51
-5.53
6.15
16.38
24.47
30.19
33.65
35.11
34.86
33.29
30.77
27.72
24.50
21.34
18.40
15.74
13.41
11.46
9.89
8.59
7.41
6.11
4.51
2.55
0.32
-2.05
-4.43
-6.76
-9.07
-11.45
-13.99
-16.80
-20.00
-23.72
-28.03
-32.74
-37.29
-40.69
-41.73
-39.37
-33.18
-23.62
-11.90
0.32
11.50
20.63
27.37
31.84
34.38
35.28
34.71
32.82
29.86
26.23
22.42
18.89
15.90
13.48
11.48
9.70
8.02
6.40
4.89
3.52
2.25
0.93
-0.59
-2.46
-4.69
-7.19
-9.82
-12.50
-15.24
-18.19
-21.55
-25.50
-29.99
-34.65
-38.73
-41.16
-40.86
-37.08
-29.76
-19.62
-7.98
3.58
13.75
21.71
27.23
30.49
31.84
31.61
30.07
27.48
24.15
20.54
17.09
14.21
12.09
10.67
9.67
8.78
7.74
6.49
5.08
3.60
2.03
0.26
-1.87
-4.43
-7.31
-10.30
-13.18
-15.86
-18.44
-21.17
-24.35
-28.19
-32.60
-37.13
-40.87
-42.66
-41.40
-36.43
-27.89
-16.73
-4.47
7.29
17.30
24.93
30.09
33.07
34.23
33.92
32.42
30.01
27.02
23.74
20.43
17.25
14.27
11.53
9.11
7.12
5.64
4.61
3.83
2.95
1.59
-0.49
-3.30
-6.57
-9.93
-13.07
-15.84
-18.38
-21.03
-24.14
-28.00
-32.62
-37.62
-42.22
-45.33
-45.80
-42.77
-35.97
-25.90
-13.73
-0.98
10.91
20.87
28.40
33.47
36.37
37.47
37.16
35.78
33.68
31.18
28.53
25.89
23.31
20.80
18.33
15.93
13.71
11.77
10.15
8.77
7.41
5.80
3.70
1.05
-2.03
-5.29
-8.45
-11.33
-13.99
-16.70
-19.84
-23.73
-28.50
-33.88
-39.13
-43.13
-44.63
-42.60
-36.59
-27.01
-15.01
-2.17
9.93
20.15
27.93
33.26
36.40
37.71
37.52
36.14
33.92
31.24
28.43
25.73
23.18
20.77
18.45
16.22
14.13
12.27
10.65
9.22
7.82
6.25
4.32
1.90
-0.99
-4.23
-7.60
-10.86
-13.86
-16.59
-19.21
-22.01
-25.37
-29.46
-34.13
-38.74
-42.18
-43.16
-40.67
-34.33
-24.64
-12.85
-0.55
10.82
20.32
27.60
32.72
35.90
37.29
36.99
35.16
32.16
28.56
24.99
21.97
19.64
17.86
16.22
14.42
12.32
10.09
8.00
6.26
4.87
3.56
1.98
-0.16
-2.90
-6.02
-9.18
-12.07
-14.61
-16.91
-19.29
-22.12
-25.71
-30.13
-35.14
-40.06
-43.86
-45.26
-43.20
-37.16
-27.49
-15.35
-2.40
9.77
20.00
27.77
33.06
36.12
37.24
36.68
34.74
31.85
28.46
25.04
21.86
19.01
16.44
14.09
11.94
10.03
8.42
7.06
5.83
4.57
3.10
1.33
-0.79
-3.24
-5.93
-8.71
-11.39
-13.84
-16.03
-18.14
-20.55
-23.70
-27.86
-32.95
-38.28
-42.64
-44.55
-42.76
-36.72
-26.86
-14.52
-1.55
10.33
19.99
27.01
31.61
34.25
35.35
35.12
33.69
31.21
28.02
24.53
21.18
18.20
15.63
13.35
11.22
9.17
7.26
5.59
4.20
3.00
1.72
0.07
-2.17
-4.98
-8.11
-11.18
-13.88
-16.11
-18.06
-20.15
-22.81
-26.38
-30.83
-35.74
-40.27
-43.31
-43.72
-40.67
-33.91
-23.92
-11.90
0.62
12.14
21.56
28.36
32.51
34.34
34.25
32.63
29.88
26.42
22.74
19.27
16.29
13.85
11.80
9.93
8.09
6.31
4.72
3.41
2.35
1.28
-0.10
-2.07
-4.67
-7.68
-10.77
-13.60
-16.04
-18.19
-20.37
-23.00
-26.39
-30.63
-35.45
-40.16
-43.79
-45.18
-43.38
-37.91
-29.04
-17.73
-5.46
6.27
16.24
23.80
28.80
31.50
32.25
31.49
29.59
26.97
24.00
20.99
18.16
15.57
13.17
10.92
8.75
6.69
4.82
3.20
1.86
0.73
-0.37
-1.70
-3.49
-5.82
-8.57
-11.47
-14.24
-16.72
-19.02
-21.47
-24.49
-28.30
-32.78
-37.34
-40.99
-42.59
-41.15
-36.19
-27.85
-16.96
-4.80
7.21
17.85
26.31
32.31
35.96
37.65
37.82
36.88
35.14
32.82
30.12
27.25
24.38
21.66
19.11
16.72
14.43
12.23
10.19
8.42
6.96
5.68
4.32
2.59
0.29
-2.55
-5.70
-8.88
-11.88
-14.70
-17.57
-20.84
-24.78
-29.42
-34.38
-38.82
-41.57
-41.47
-37.73
-30.25
-19.74
-7.57
4.68
15.61
24.37
30.65
34.57
36.46
36.65
35.44
33.18
30.27
27.18
24.31
21.83
19.74
17.84
15.93
13.94
11.95
10.11
8.49
7.04
5.52
3.67
1.30
-1.55
-4.68
-7.76
-10.56
-13.00
-15.22
-17.55
-20.32
-23.85
-28.26
-33.32
-38.41
-42.48
-44.28
-42.70
-37.17
-27.94
-16.09
-3.18
9.13
19.60
27.57
32.92
35.88
36.79
36.00
33.90
30.93
27.59
24.34
21.52
19.19
17.26
15.52
13.81
12.11
10.48
9.04
7.76
6.51
4.99
2.96
0.32
-2.83
-6.21
-9.51
-12.50
-15.15
-17.58
-20.08
-22.98
-26.59
-31.00
-35.92
-40.59
-43.84
-44.39
-41.25
-34.18
-23.83
-11.53
1.11
12.70
22.36
29.71
34.74
37.56
38.35
37.33
34.93
31.73
28.37
25.32
22.81
20.77
18.98
17.21
15.37
13.48
11.58
9.71
7.83
5.87
3.75
1.42
-1.13
-3.86
-6.74
-9.72
-12.72
-15.73
-18.77
-22.00
-25.63
-29.81
-34.47
-39.12
-42.85
-44.45
-42.85
-37.43
-28.40
-16.79
-4.13
7.96
18.22
25.98
31.11
33.84
34.52
33.49
31.10
27.78
24.03
20.32
17.04
14.29
12.00
9.98
8.11
6.36
4.80
3.50
2.38
1.24
-0.18
-2.12
-4.61
-7.48
-10.46
-13.24
-15.69
-17.86
-19.99
-22.46
-25.59
-29.55
-34.18
-38.90
-42.71
-44.36
-42.78
-37.38
-28.37
-16.77
-4.12
7.99
18.30
26.15
31.39
34.23
34.98
33.97
31.57
28.24
24.52
20.96
17.92
15.51
13.59
11.91
10.26
8.54
6.78
5.04
3.37
1.73
0.02
-1.85
-3.92
-6.20
-8.67
-11.32
-14.14
-17.16
-20.40
-23.95
-27.94
-32.41
-37.22
-41.82
-45.31
-46.53
-44.47
-38.64
-29.37
-17.76
-5.37
6.26
15.97
23.25
28.11
30.86
31.89
31.51
29.95
27.48
24.39
21.06
17.85
15.02
12.71
10.85
9.32
7.93
6.54
5.07
3.49
1.80
-0.03
-2.03
-4.24
-6.67
-9.29
-11.99
-14.68
-17.32
-20.03
-23.03
-26.62
-30.95
-35.77
-40.39
-43.67
-44.35
-41.45
-34.70
-24.64
-12.54
0.03
11.62
21.30
28.69
33.84
36.99
38.40
38.23
36.75
34.30
31.35
28.40
25.83
23.75
22.04
20.42
18.64
16.62
14.48
12.44
10.69
9.22
7.83
6.18
3.97
1.12
-2.24
-5.82
-9.33
-12.66
-15.90
-19.30
-23.14
-27.53
-32.25
-36.72
-40.02
-41.11
-39.12
-33.63
-24.92
-13.93
-2.01
9.43
19.33
27.09
32.59
36.00
37.57
37.54
36.17
33.76
30.72
27.52
24.53
21.93
19.70
17.68
15.71
13.74
11.87
10.20
8.77
7.42
5.87
3.81
1.11
-2.14
-5.62
-8.99
-12.03
-14.72
-17.26
-19.99
-23.21
-27.15
-31.77
-36.72
-41.26
-44.27
-44.60
-41.35
-34.27
-23.95
-11.73
0.79
12.13
21.41
28.32
33.01
35.76
36.77
36.19
34.19
31.13
27.58
24.13
21.21
18.93
17.10
15.43
13.70
11.89
10.17
8.69
7.46
6.27
4.79
2.74
0.05
-3.15
-6.54
-9.83
-12.83
-15.56
-18.20
-21.00
-24.22
-28.01
-32.33
-36.80
-40.66
-42.86
-42.33
-38.31
-30.72
-20.29
-8.32
3.67
14.37
23.00
29.30
33.36
35.40
35.65
34.36
31.88
28.66
25.25
22.09
19.43
17.27
15.46
13.79
12.17
10.56
8.97
7.40
5.73
3.83
1.58
-1.01
-3.83
-6.68
-9.40
-11.92
-14.27
-16.59
-19.07
-21.96
-25.46
-29.66
-34.36
-38.95
-42.41
-43.48
-41.12
-34.88
-25.18
-13.25
-0.71
10.88
20.48
27.65
32.44
35.14
36.04
35.40
33.47
30.61
27.23
23.78
20.63
17.95
15.72
13.81
12.09
10.44
8.82
7.24
5.68
4.11
2.43
0.49
-1.79
-4.44
-7.38
-10.44
-13.44
-16.25
-18.90
-21.63
-24.75
-28.59
-33.19
-38.11
-42.39
-44.74
-43.92
-39.18
-30.66
-19.34
-6.78
5.35
15.81
23.97
29.78
33.49
35.42
35.76
34.64
32.25
29.00
25.40
22.01
19.18
16.97
15.22
13.63
12.02
10.33
8.63
6.98
5.36
3.59
1.47
-1.10
-4.03
-7.05
-9.83
-12.19
-14.17
-16.12
-18.51
-21.80
-26.21
-31.55
-37.16
-41.99
-44.81
-44.49
-40.40
-32.59
-21.89
-9.69
2.44
13.14
21.54
27.35
30.73
32.04
31.74
30.22
27.85
25.01
22.04
19.19
16.64
14.42
12.45
10.69
9.08
7.66
6.48
5.51
4.63
3.58
2.06
-0.14
-3.06
-6.52
-10.14
-13.57
-16.56
-19.10
-21.44
-23.96
-27.05
-30.90
-35.35
-39.77
-43.16
-44.34
-42.37
-36.86
-28.17
-17.34
-5.76
5.20
14.58
21.89
27.02
30.13
31.40
31.05
29.30
26.50
23.08
19.55
16.35
13.73
11.76
10.28
9.07
7.93
6.76
5.53
4.23
2.83
1.19
-0.81
-3.24
-6.01
-8.93
-11.79
-14.48
-17.03
-19.65
-22.65
-26.30
-30.74
-35.74
-40.68
-44.53
-46.10
-44.37
-38.93
-30.09
-18.92
-6.86
4.70
14.75
22.77
28.66
32.54
34.61
35.09
34.25
32.46
30.09
27.54
25.06
22.78
20.72
18.82
17.04
15.38
13.86
12.48
11.15
9.71
7.94
5.69
2.95
-0.15
-3.33
-6.34
-9.04
-11.47
-13.87
-16.58
-20.00
-24.30
-29.37
-34.63
-39.09
-41.51
-40.76
-36.18
-27.88
-16.74
-4.17
8.22
19.07
27.57
33.44
36.86
38.23
38.02
36.66
34.55
32.03
29.40
26.88
24.58
22.50
20.55
18.61
16.64
14.66
12.75
10.99
9.35
7.72
5.88
3.63
0.89
-2.27
-5.66
-9.01
-12.17
-15.11
-18.00
-21.11
-24.75
-29.02
-33.69
-38.09
-41.14
-41.64
-38.69
-32.02
-22.20
-10.53
1.43
12.27
21.13
27.73
32.21
34.85
35.87
35.41
33.66
30.93
27.71
24.49
21.63
19.27
17.28
15.47
13.66
11.84
10.08
8.51
7.10
5.69
3.98
1.74
-1.08
-4.29
-7.60
-10.71
-13.48
-15.96
-18.38
-21.00
-24.11
-27.88
-32.27
-36.91
-41.02
-43.49
-43.14
-39.16
-31.46
-20.76
-8.48
3.78
14.62
23.23
29.35
33.15
34.93
34.99
33.65
31.21
28.11
24.82
21.76
19.17
17.07
15.33
13.76
12.23
10.76
9.44
8.37
7.47
6.53
5.25
3.39
0.91
-1.98
-4.95
-7.68
-10.06
-12.22
-14.49
-17.21
-20.64
-24.80
-29.49
-34.20
-38.17
-40.45
-40.11
-36.46
-29.42
-19.54
-8.00
3.73
14.33
22.85
28.93
32.61
34.23
34.15
32.74
30.35
27.31
23.99
20.72
17.74
15.15
12.90
10.86
8.94
7.07
5.29
3.65
2.13
0.60
-1.14
-3.27
-5.85
-8.78
-11.81
-14.69
-17.30
-19.66
-21.99
-24.54
-27.56
-31.20
-35.33
-39.48
-42.78
-44.17
-42.63
-37.64
-29.36
-18.74
-7.16
3.96
13.54
21.04
26.33
29.56
30.91
30.61
28.92
26.22
22.98
19.66
16.56
13.83
11.43
9.29
7.33
5.58
4.04
2.75
1.62
0.50
-0.81
-2.48
-4.61
-7.17
-10.02
-12.97
-15.79
-18.35
-20.70
-23.04
-25.72
-29.10
-33.26
-37.91
-42.27
-45.20
-45.54
-42.47
-35.81
-26.14
-14.67
-2.84
8.03
17.02
23.75
28.23
30.76
31.68
31.31
29.93
27.80
25.17
22.30
19.39
16.63
14.13
11.94
10.10
8.60
7.37
6.25
5.08
3.65
1.82
-0.43
-3.05
-5.91
-8.85
-11.73
-14.47
-17.09
-19.68
-22.45
-25.66
-29.49
-33.86
-38.27
-41.76
-43.13
-41.35
-35.89
-27.06
-15.85
-3.67
8.09
18.40
26.70
32.81
36.80
38.86
39.24
38.28
36.40
34.02
31.48
28.98
26.55
24.14
21.74
19.40
17.28
15.50
14.06
12.83
11.51
9.81
7.50
4.61
1.34
-1.96
-4.97
-7.55
-9.76
-11.91
-14.36
-17.50
-21.55
-26.42
-31.65
-36.32
-39.28
-39.35
-35.78
-28.47
-18.18
-6.22
5.84
16.65
25.39
31.75
35.88
38.07
38.62
37.75
35.71
32.82
29.48
26.14
23.14
20.61
18.47
16.51
14.52
12.44
10.38
8.50
6.95
5.63
4.31
2.64
0.38
-2.51
-5.83
-9.26
-12.47
-15.29
-17.78
-20.16
-22.78
-25.95
-29.82
-34.15
-38.26
-41.10
-41.53
-38.69
-32.30
-22.86
-11.50
0.33
11.32
20.56
27.62
32.48
35.31
36.27
35.56
33.40
30.20
26.47
22.81
19.64
17.15
15.21
13.56
11.92
10.21
8.47
6.83
5.36
3.96
2.43
0.55
-1.80
-4.57
-7.57
-10.51
-13.19
-15.54
-17.67
-19.91
-22.62
-26.11
-30.42
-35.17
-39.56
-42.42
-42.57
-39.20
-32.19
-22.18
-10.49
1.32
11.91
20.46
26.74
30.94
33.34
34.16
33.50
31.51
28.51
25.05
21.68
18.79
16.47
14.50
12.60
10.59
8.55
6.70
5.24
4.15
3.16
1.90
0.05
-2.51
-5.62
-8.92
-12.07
-14.81
-17.12
-19.16
-21.22
-23.68
-26.85
-30.86
-35.48
-40.04
-43.41
-44.29
-41.62
-34.98
-24.84
-12.52
0.29
11.97
21.43
28.26
32.58
34.75
35.19
34.19
32.07
29.14
25.82
22.47
19.40
16.74
14.48
12.54
10.78
9.11
7.45
5.78
4.08
2.33
0.48
-1.55
-3.87
-6.49
-9.32
-12.19
-14.93
-17.44
-19.82
-22.37
-25.45
-29.32
-33.95
-38.88
-43.17
-45.56
-44.86
-40.33
-32.01
-20.84
-8.33
3.86
14.41
22.62
28.40
32.01
33.79
33.99
32.83
30.54
27.49
24.09
20.71
17.59
14.79
12.32
10.16
8.30
6.74
5.43
4.27
3.06
1.59
-0.32
-2.76
-5.73
-9.03
-12.39
-15.52
-18.25
-20.62
-22.91
-25.59
-29.07
-33.55
-38.79
-44.00
-47.97
-49.32
-46.97
-40.50
-30.42
-18.01
-5.02
6.94
16.75
23.97
28.69
31.30
32.16
31.63
30.01
27.64
24.91
22.17
19.67
17.45
15.45
13.51
11.59
9.70
7.95
6.39
4.96
3.52
1.83
-0.24
-2.75
-5.58
-8.57
-11.57
-14.54
-17.52
-20.63
-24.02
-27.83
-32.14
-36.84
-41.49
-45.29
-47.12
-45.91
-41.01
-32.51
-21.28
-8.76
3.50
14.29
22.97
29.47
33.99
36.84
38.20
38.19
36.95
34.77
32.04
29.16
26.43
23.98
21.76
19.67
17.67
15.79
14.12
12.68
11.37
9.92
8.03
5.48
2.27
-1.37
-5.06
-8.44
-11.33
-13.81
-16.20
-18.97
-22.54
-27.08
-32.30
-37.43
-41.26
-42.48
-40.09
-33.74
-23.97
-12.03
0.50
12.16
21.98
29.53
34.78
37.94
39.25
38.97
37.42
35.03
32.28
29.57
27.11
24.87
22.66
20.34
17.86
15.41
13.23
11.49
10.15
8.95
7.48
5.41
2.62
-0.72
-4.27
-7.63
-10.59
-13.16
-15.56
-18.12
-21.18
-24.96
-29.45
-34.29
-38.74
-41.73
-42.07
-38.87
-31.87
-21.65
-9.51
2.96
14.30
23.59
30.50
35.14
37.78
38.66
37.98
35.96
32.98
29.52
26.09
23.06
20.57
18.47
16.52
14.52
12.46
10.45
8.71
7.33
6.20
5.04
3.51
1.36
-1.43
-4.63
-7.87
-10.81
-13.31
-15.47
-17.64
-20.27
-23.75
-28.21
-33.37
-38.46
-42.31
-43.66
-41.44
-35.25
-25.49
-13.36
-0.50
11.43
21.25
28.39
32.91
35.18
35.67
34.77
32.79
30.02
26.85
23.68
20.83
18.44
16.42
14.57
12.72
10.84
9.04
7.47
6.17
4.98
3.59
1.66
-0.96
-4.17
-7.61
-10.89
-13.70
-15.98
-17.91
-19.82
-22.08
-25.01
-28.75
-33.16
-37.75
-41.65
-43.67
-42.70
-38.02
-29.72
-18.69
-6.42
5.51
15.83
23.85
29.41
32.68
33.94
33.50
31.66
28.84
25.56
22.29
19.38
16.94
14.83
12.85
10.80
8.66
6.57
4.71
3.23
2.13
1.20
0.10
-1.46
-3.66
-6.40
-9.44
-12.46
-15.25
-17.76
-20.16
-22.71
-25.68
-29.26
-33.42
-37.86
-41.89
-44.50
-44.55
-41.15
-33.95
-23.48
-11.01
1.78
13.35
22.64
29.30
33.47
35.55
35.94
34.90
32.69
29.68
26.31
23.04
20.18
17.79
15.68
13.61
11.44
9.21
7.12
5.37
4.02
2.95
1.87
0.44
-1.53
-4.08
-7.05
-10.18
-13.22
-15.98
-18.45
-20.84
-23.51
-26.83
-30.96
-35.61
-39.98
-42.84
-42.91
-39.32
-31.94
-21.52
-9.42
2.77
13.72
22.64
29.29
33.76
36.29
37.06
36.29
34.23
31.24
27.82
24.38
21.23
18.45
15.97
13.64
11.39
9.24
7.32
5.76
4.57
3.60
2.55
1.07
-1.09
-3.97
-7.30
-10.67
-13.66
-16.07
-18.05
-20.00
-22.47
-25.90
-30.39
-35.57
-40.62
-44.37
-45.57
-43.22
-36.93
-27.08
-14.81
-1.68
10.69
21.11
28.92
34.05
36.76
37.46
36.58
34.53
31.74
28.68
25.72
23.11
20.83
18.70
16.49
14.05
11.43
8.87
6.64
4.93
3.71
2.72
1.57
-0.07
-2.37
-5.24
-8.44
-11.65
-14.61
-17.21
-19.56
-21.91
-24.64
-28.08
-32.31
-37.01
-41.27
-43.83
-43.35
-38.97
-30.69
-19.41
-6.72
5.70
16.47
24.86
30.71
34.24
35.76
35.59
34.03
31.50
28.50
25.48
22.75
20.39
18.25
16.14
13.87
11.45
9.07
6.98
5.30
3.94
2.67
1.22
-0.60
-2.92
-5.74
-8.86
-12.01
-15.07
-18.05
-20.96
-23.85
-26.72
-29.84
-33.51
-37.66
-41.86
-45.37
-47.12
-45.91
-40.95
-32.06
-20.45
-8.01
3.30
11.81
16.42
16.81
13.45
7.20
-0.70
-9.58
-18.83
-27.82
-33.84
-34.62
-29.88
-21.65
-14.54
-9.11
-4.86
-1.00
3.84
9.89
16.70
23.41
29.32
34.04
37.07
37.66
35.64
33.01
30.39
27.83
24.66
21.03
17.45
14.62
12.63
11.11
9.47
7.01
3.54
-0.48
-4.02
-6.01
-5.69
-3.07
1.23
6.31
11.00
14.44
16.11
15.97
14.19
11.16
7.29
3.01
-1.23
-5.16
-8.48
-10.94
-12.38
-12.89
-12.71
-12.24
-11.85
-11.78
-12.12
-12.78
-13.64
-14.61
-15.76
-17.17
-18.86
-20.74
-22.66
-24.61
-26.72
-29.30
-32.65
-36.80
-41.27
-45.08
-46.96
-45.73
-40.74
-32.08
-20.57
-7.47
5.83
18.18
28.78
37.17
43.21
46.93
48.55
48.45
47.14
45.20
43.15
41.35
39.88
38.55
37.09
35.27
33.04
30.59
28.24
26.18
24.38
22.51
20.10
16.82
12.64
7.87
3.07
-1.22
-4.68
-7.29
-9.28
-10.93
-12.51
-14.20
-16.06
-17.97
-19.65
-20.57
-20.10
-17.63
-12.85
-5.91
2.55
11.59
20.18
27.46
32.92
36.32
37.74
37.36
35.49
32.45
28.64
24.43
20.16
16.09
12.43
9.28
6.71
4.74
3.35
2.45
1.81
1.11
0.01
-1.70
-4.01
-6.68
-9.36
-11.77
-13.84
-15.73
-17.67
-19.90
-22.59
-25.81
-29.59
-33.78
-37.94
-41.27
-42.65
-41.01
-35.75
-27.06
-15.99
-4.12
6.96
16.09
22.75
27.02
29.27
29.92
29.32
27.71
25.32
22.44
19.40
16.47
13.83
11.52
9.48
7.66
6.00
4.54
3.30
2.27
1.34
0.29
-1.09
-2.92
-5.18
-7.70
-10.24
-12.64
-14.90
-17.20
-19.79
-22.98
-26.88
-31.36
-35.87
-39.51
-41.17
-39.81
-34.92
-26.65
-15.94
-4.20
7.07
16.65
23.86
28.53
30.89
31.32
30.29
28.24
25.59
22.69
19.77
16.95
14.23
11.63
9.16
6.90
4.95
3.32
1.98
0.79
-0.39
-1.69
-3.20
-4.97
-7.03
-9.35
-11.86
-14.50
-17.20
-19.99
-23.04
-26.53
-30.54
-34.83
-38.76
-41.31
-41.39
-38.19
-31.49
-21.85
-10.42
1.30
11.95
20.55
26.69
30.48
32.23
32.37
31.24
29.13
26.33
23.14
19.89
16.86
14.18
11.88
9.92
8.24
6.82
5.65
4.69
3.77
2.63
1.02
-1.22
-4.00
-7.10
-10.17
-12.95
-15.39
-17.61
-19.93
-22.71
-26.21
-30.40
-34.78
-38.44
-40.12
-38.71
-33.56
-24.82
-13.52
-1.21
10.49
20.33
27.64
32.35
34.73
35.19
34.13
31.93
28.94
25.53
22.03
18.68
15.62
12.87
10.42
8.22
6.28
4.59
3.14
1.83
0.52
-0.96
-2.70
-4.72
-6.94
-9.25
-11.60
-14.00
-16.54
-19.36
-22.58
-26.31
-30.48
-34.76
-38.45
-40.47
-39.67
-35.21
-26.97
-15.79
-3.23
8.89
19.06
26.50
31.13
33.39
33.84
32.95
31.04
28.37
25.22
21.92
18.78
15.95
13.43
11.12
8.88
6.68
4.56
2.59
0.80
-0.88
-2.59
-4.49
-6.68
-9.14
-11.81
-14.61
-17.51
-20.56
-23.92
-27.75
-32.16
-37.07
-42.06
-46.37
-48.92
-48.59
-44.58
-36.77
-25.88
-13.30
-0.69
10.48
19.31
25.52
29.31
31.11
31.34
30.39
28.59
26.27
23.73
21.17
18.69
16.28
13.95
11.78
9.88
8.38
7.22
6.23
5.15
3.71
1.80
-0.61
-3.43
-6.53
-9.76
-12.96
-16.00
-18.84
-21.66
-24.79
-28.56
-33.03
-37.70
-41.47
-42.92
-40.78
-34.51
-24.56
-12.30
0.48
12.15
21.66
28.68
33.41
36.22
37.47
37.39
36.13
33.94
31.13
28.07
25.06
22.28
19.75
17.47
15.41
13.57
11.96
10.55
9.23
7.85
6.20
4.17
1.71
-1.09
-4.08
-7.06
-9.88
-12.54
-15.18
-18.10
-21.62
-25.91
-30.75
-35.43
-38.82
-39.62
-36.87
-30.27
-20.41
-8.57
3.61
14.70
23.75
30.40
34.74
37.06
37.71
37.00
35.23
32.74
29.85
26.82
23.83
20.95
18.23
15.70
13.43
11.51
9.97
8.74
7.65
6.45
4.94
2.95
0.51
-2.24
-5.06
-7.72
-10.10
-12.24
-14.37
-16.83
-19.99
-23.99
-28.65
-33.32
-36.92
-38.21
-36.20
-30.46
-21.43
-10.25
1.53
12.45
21.46
28.07
32.28
34.32
34.51
33.19
30.71
27.51
24.05
20.74
17.84
15.38
13.24
11.24
9.28
7.37
5.62
4.11
2.84
1.64
0.30
-1.39
-3.46
-5.79
-8.17
-10.42
-12.47
-14.47
-16.65
-19.30
-22.63
-26.67
-31.18
-35.55
-38.83
-39.91
-37.83
-32.15
-23.20
-12.05
-0.24
10.73
19.76
26.32
30.45
32.43
32.67
31.52
29.34
26.48
23.31
20.15
17.23
14.62
12.30
10.21
8.33
6.69
5.32
4.17
3.14
2.03
0.67
-1.07
-3.18
-5.58
-8.12
-10.67
-13.16
-15.61
-18.13
-20.93
-24.24
-28.18
-32.53
-36.68
-39.62
-40.19
-37.45
-31.09
-21.60
-10.17
1.62
12.34
20.99
27.17
31.00
32.80
32.98
31.83
29.66
26.75
23.46
20.14
17.02
14.20
11.65
9.29
7.11
5.15
3.48
2.10
0.87
-0.43
-2.00
-3.94
-6.23
-8.71
-11.17
-13.49
-15.66
-17.80
-20.16
-23.06
-26.74
-31.20
-35.99
-40.15
-42.38
-41.39
-36.42
-27.58
-15.95
-3.23
8.80
18.82
26.21
31.03
33.65
34.53
33.98
32.25
29.62
26.43
23.10
19.95
17.15
14.67
12.40
10.27
8.26
6.42
4.76
3.21
1.59
-0.27
-2.47
-4.98
-7.64
-10.27
-12.77
-15.14
-17.56
-20.28
-23.56
-27.53
-32.12
-36.88
-40.96
-43.26
-42.63
-38.37
-30.50
-19.87
-7.96
3.64
13.67
21.48
27.01
30.48
32.19
32.33
31.07
28.63
25.43
21.94
18.59
15.64
13.15
11.04
9.20
7.56
6.02
4.48
2.80
0.85
-1.42
-3.95
-6.58
-9.16
-11.62
-13.97
-16.38
-19.03
-22.16
-25.95
-30.47
-35.50
-40.43
-44.24
-45.68
-43.64
-37.61
-27.98
-15.99
-3.34
8.31
17.81
24.73
29.21
31.71
32.67
32.37
30.98
28.63
25.60
22.24
18.96
16.11
13.80
11.99
10.47
9.01
7.44
5.67
3.71
1.60
-0.64
-2.98
-5.42
-7.96
-10.65
-13.52
-16.70
-20.33
-24.54
-29.37
-34.62
-39.69
-43.61
-45.16
-43.27
-37.42
-27.93
-15.92
-3.02
9.16
19.48
27.41
32.98
36.46
38.14
38.23
36.93
34.52
31.39
27.96
24.58
21.48
18.70
16.23
13.97
11.87
9.89
7.97
6.08
4.17
2.20
0.10
-2.13
-4.54
-7.11
-9.82
-12.70
-15.88
-19.57
-24.01
-29.25
-34.90
-40.01
-43.24
-43.19
-38.99
-30.61
-18.99
-5.80
7.19
18.51
27.40
33.69
37.68
39.75
40.26
39.50
37.73
35.24
32.35
29.30
26.26
23.28
20.43
17.72
15.21
12.89
10.72
8.58
6.40
4.12
1.73
-0.73
-3.28
-5.97
-8.90
-12.15
-15.82
-19.98
-24.70
-29.94
-35.45
-40.63
-44.47
-45.79
-43.55
-37.31
-27.44
-15.13
-2.05
10.20
20.48
28.30
33.78
37.29
39.18
39.64
38.72
36.50
33.23
29.34
25.36
21.75
18.82
16.62
14.99
13.69
12.37
10.78
8.71
6.11
3.04
-0.31
-3.71
-6.96
-9.97
-12.79
-15.62
-18.71
-22.37
-26.79
-31.95
-37.48
-42.55
-45.96
-46.44
-43.03
-35.49
-24.47
-11.39
1.97
14.03
23.73
30.74
35.22
37.61
38.31
37.64
35.82
33.09
29.78
26.30
22.97
20.01
17.41
15.11
12.99
11.01
9.16
7.41
5.71
3.97
2.03
-0.20
-2.77
-5.59
-8.55
-11.57
-14.66
-17.90
-21.49
-25.72
-30.74
-36.32
-41.71
-45.63
-46.68
-43.80
-36.57
-25.60
-12.43
0.94
12.75
22.00
28.46
32.44
34.37
34.96
34.68
33.71
31.97
29.46
26.39
23.09
19.89
17.00
15.09
14.57
15.22
16.28
16.95
16.85
16.11
15.21
14.64
15.49
18.43
23.27
29.14
35.21
41.15
46.84
52.08
52.11
44.07
29.29
12.94
0.32
-6.06
-6.65
-4.01
-1.43
-1.66
-5.09
-10.47
-16.30
-21.61
-26.36
-30.56
-34.24
-37.34
-39.89
-41.19
-40.81
-39.37
-37.90
-37.02
-36.63
-36.38
-34.63
-31.12
-26.05
-20.49
-16.66
-16.51
-20.47
-27.39
-35.40
-42.70
-48.34
-51.92
-53.87
-55.95
-59.64
-65.17
-71.64
-77.58
-81.14
-80.23
-72.31
-50.98
-15.82
26.22
64.84
92.64
107.11
109.56
103.13
91.42
77.33
61.83
45.52
29.59
15.75
5.44
-0.71
-3.07
-2.83
-1.66
-1.77
-4.36
-9.09
-14.50
-19.11
-22.08
-23.27
-23.15
-22.52
-22.57
-24.01
-26.74
-29.97
-32.72
-34.08
-33.23
-29.56
-22.80
-13.36
-2.12
9.74
20.96
30.28
36.65
39.66
39.61
37.35
33.89
30.11
26.60
23.70
21.48
19.90
18.88
18.26
17.75
16.93
15.35
12.73
9.08
4.69
0.06
-4.27
-7.87
-10.56
-12.44
-13.78
-14.89
-16.03
-17.35
-18.83
-20.36
-21.71
-22.59
-22.76
-22.16
-21.00
-19.75
-19.02
-19.33
-20.86
-23.52
-26.73
-29.67
-31.46
-31.53
-29.66
-26.04
-21.15
-15.62
-10.10
-5.19
-1.35
1.20
2.53
2.97
3.02
3.21
3.89
5.20
7.09
9.37
11.78
14.06
16.02
17.59
18.85
19.98
21.21
22.66
24.30
25.92
27.24
28.03
28.24
28.00
27.53
27.00
26.48
25.86
24.97
23.63
21.77
19.49
16.97
14.50
12.40
10.97
10.49
11.10
12.79
15.36
18.45
21.59
24.33
26.38
27.60
28.02
27.74
26.82
25.32
23.26
20.72
17.89
14.99
12.24
9.78
7.65
5.76
3.99
2.20
0.33
-1.61
-3.52
-5.29
-6.90
-8.41
-9.99
-11.81
-13.97
-16.42
-18.99
-21.51
-23.88
-26.15
-28.34
-30.29
-31.59
-31.64
-29.90
-26.17
-20.73
-14.27
-7.63
-1.55
3.52
7.45
10.30
12.17
13.13
13.21
12.49
11.14
9.43
7.70
6.24
5.22
4.65
4.37
4.13
3.69
2.89
1.64
0.01
-1.90
-3.89
-5.74
-7.30
-8.51
-9.46
-10.35
-11.44
-12.94
-14.97
-17.46
-20.15
-22.64
-24.41
-24.99
-24.03
-21.41
-17.31
-12.14
-6.47
-0.89
4.12
8.22
11.23
13.11
13.97
13.99
13.44
12.56
11.52
10.35
9.04
7.56
5.97
4.42
3.07
2.07
1.38
0.85
0.23
-0.66
-1.87
-3.30
-4.75
-6.10
-7.36
-8.64
-10.14
-12.01
-14.28
-16.85
-19.51
-21.93
-23.69
-24.36
-23.62
-21.30
-17.57
-12.82
-7.62
-2.55
1.99
5.83
8.98
11.54
13.57
15.08
15.97
16.17
15.70
14.63
13.14
11.39
9.54
7.73
6.06
4.62
3.45
2.55
1.87
1.27
0.60
-0.29
-1.52
-3.12
-5.01
-7.08
-9.16
-11.14
-13.02
-14.88
-16.81
-18.81
-20.68
-22.06
-22.51
-21.68
-19.44
-15.94
-11.53
-6.66
-1.76
2.82
6.86
10.25
12.91
14.79
15.88
16.22
15.93
15.18
14.14
12.96
11.71
10.40
9.05
7.67
6.32
5.07
3.99
3.07
2.29
1.52
0.65
-0.42
-1.72
-3.22
-4.86
-6.58
-8.37
-10.28
-12.38
-14.66
-16.96
-18.97
-20.25
-20.40
-19.13
-16.38
-12.35
-7.46
-2.21
2.92
7.53
11.41
14.49
16.79
18.38
19.34
19.69
19.50
18.84
17.84
16.63
15.35
14.08
12.86
11.67
10.50
9.33
8.21
7.16
6.17
5.21
4.15
2.89
1.39
-0.34
-2.26
-4.29
-6.44
-8.76
-11.30
-14.05
-16.83
-19.31
-21.07
-21.69
-20.91
-18.70
-15.31
-11.16
-6.70
-2.35
1.65
5.12
7.98
10.19
11.73
12.60
12.88
12.66
12.04
11.10
9.91
8.56
7.15
5.79
4.61
3.66
2.93
2.32
1.66
0.82
-0.29
-1.61
-3.02
-4.37
-5.53
-6.51
-7.42
-8.52
-10.07
-12.24
-15.03
-18.20
-21.31
-23.78
-25.00
-24.54
-22.28
-18.40
-13.42
-7.93
-2.51
2.44
6.71
10.21
12.90
14.81
16.00
16.57
16.64
16.31
15.63
14.65
13.45
12.14
10.87
9.73
8.74
7.83
6.92
5.97
5.06
4.26
3.62
3.08
2.47
1.62
0.45
-1.03
-2.76
-4.68
-6.79
-9.09
-11.54
-13.94
-15.96
-17.17
-17.22
-15.88
-13.19
-9.38
-4.86
-0.07
4.58
8.80
12.41
15.34
17.52
18.94
19.57
19.42
18.57
17.16
15.45
13.69
12.10
10.77
9.70
8.81
8.02
7.28
6.58
5.97
5.44
4.97
4.45
3.70
2.58
0.96
-1.20
-3.87
-6.96
-10.38
-14.06
-17.92
-21.84
-25.60
-28.86
-31.22
-32.30
-31.89
-30.01
-26.98
-23.37
-19.85
-17.05
-15.34
-14.78
-15.16
-16.08
-17.21
-18.40
-19.62
-20.95
-22.34
-23.63
-24.62
-25.20
-25.46
-25.59
-25.76
-25.96
-25.97
-25.57
-24.68
-23.52
-22.45
-21.78
-21.56
-21.53
-21.34
-20.78
-19.94
-19.20
-18.96
-19.39
-20.35
-21.39
-21.99
-21.69
-20.23
-17.55
-13.72
-8.96
-3.59
2.02
7.44
12.34
16.47
19.73
22.11
23.72
24.70
25.31
25.81
26.46
27.38
28.52
29.71
30.75
31.50
31.94
32.15
32.21
32.13
31.83
31.22
30.28
29.02
27.49
25.74
23.72
21.40
18.75
15.79
12.59
9.25
5.82
2.34
-1.09
-4.24
-6.73
-8.12
-8.08
-6.55
-3.83
-0.44
3.00
6.01
8.37
10.01
10.94
11.28
11.07
10.41
9.45
8.41
7.53
7.00
6.78
6.73
6.68
6.52
6.23
5.82
5.34
4.87
4.45
3.98
3.39
2.79
2.26
1.86
1.57
1.32
1.22
1.36
1.36
0.94
0.08
-1.17
-2.71
-4.35
-5.83
-6.46
-5.63
-3.80
-1.40
1.49
4.65
7.78
10.53
12.62
14.55
16.93
18.93
20.01
20.44
20.51
20.51
20.79
21.70
24.45
30.09
37.58
46.06
55.75
66.78
79.25
93.04
102.18
101.88
99.59
98.96
97.61
95.05
91.34
86.87
82.07
77.03
72.33
68.15
62.69
54.55
43.69
30.27
14.71
-2.32
-19.74
-35.45
-47.28
-54.95
-58.68
-58.84
-56.49
-52.93
-49.18
-45.73
-42.12
-37.80
-33.27
-29.17
-25.79
-23.41
-22.11
-21.79
-22.29
-23.24
-24.44
-26.21
-28.77
-31.99
-35.65
-39.53
-43.54
-47.70
-52.04
-56.51
-61.08
-65.49
-69.34
-72.29
-74.20
-75.14
-75.36
-75.14
-74.66
-74.02
-73.11
-71.76
-69.78
-67.07
-63.63
-59.53
-54.85
-49.60
-43.72
-37.13
-29.83
-21.96
-13.79
-5.63
2.26
9.81
17.11
24.33
31.60
38.84
45.68
51.57
55.80
57.83
57.36
54.50
49.68
43.53
36.72
29.81
23.17
17.06
11.62
6.96
3.13
0.11
-2.16
-3.83
-5.06
-5.99
-6.70
-7.18
-7.32
-7.02
-6.27
-5.29
-4.53
-4.59
-5.98
-8.86
-12.92
-17.45
-21.57
-24.59
-26.22
-26.57
-25.90
-24.44
-22.15
-18.84
-14.30
-8.55
-1.87
5.34
12.73
20.09
27.36
34.35
40.59
45.31
47.69
47.21
43.88
38.28
31.27
23.70
16.12
8.76
1.71
-4.89
-10.75
-15.50
-18.83
-20.64
-21.07
-20.45
-19.16
-17.52
-15.74
-13.86
-11.85
-9.58
-6.93
-3.90
-0.59
2.71
5.61
7.74
8.86
8.96
8.26
7.10
5.83
4.68
3.70
2.82
1.92
0.96
-0.04
-0.98
-1.78
-2.46
-3.09
-3.73
-4.43
-5.12
-5.69
-6.04
-6.12
-5.96
-5.69
-5.44
-5.35
-5.47
-5.75
-6.11
-6.40
-6.47
-6.25
-5.77
-5.18
-4.72
-4.62
-5.02
-5.89
-7.02
-8.05
-8.60
-8.35
-7.18
-5.21
-2.72
-0.12
2.23
4.09
5.37
6.08
6.31
6.13
5.64
4.97
4.24
3.59
3.11
2.77
2.44
2.01
1.43
0.75
0.15
-0.23
-0.33
-0.26
-0.19
-0.27
-0.50
-0.79
-1.01
-1.07
-1.01
-0.96
-1.03
-1.29
-1.70
-2.22
-2.82
-3.50
-4.26
-5.02
-5.59
-5.69
-5.14
-3.90
-2.16
-0.25
1.53
2.98
4.04
4.78
5.23
5.36
5.11
4.45
3.46
2.33
1.32
0.63
0.32
0.27
0.27
0.15
-0.17
-0.61
-1.01
-1.20
-1.13
-0.84
-0.51
-0.28
-0.23
-0.38
-0.66
-0.99
-1.33
-1.63
-1.82
-1.83
-1.59
-1.05
-0.26
0.71
1.76
2.82
3.86
4.86
5.77
6.50
7.00
7.20
7.13
6.87
6.55
6.26
6.03
5.82
5.55
5.14
4.56
3.84
3.11
2.45
1.93
1.54
1.21
0.84
0.35
-0.30
-1.11
-2.03
-2.96
-3.80
-4.45
-4.91
-5.23
-5.55
-6.02
-6.73
-7.67
-8.70
-9.58
-10.02
-9.77
-8.72
-6.89
-4.48
-1.81
0.75
2.90
4.44
5.29
5.48
5.11
4.35
3.38
2.41
1.56
0.90
0.40
-0.01
-0.35
-0.61
-0.75
-0.72
-0.57
-0.40
-0.29
-0.27
-0.31
-0.34
-0.33
-0.35
-0.48
-0.84
-1.46
-2.29
-3.24
-4.23
-5.19
-6.13
-7.08
-8.08
-9.08
-10.00
-10.68
-10.92
-10.55
-9.48
-7.79
-5.68
-3.43
-1.35
0.40
1.78
2.81
3.58
4.15
4.56
4.82
5.00
5.15
5.34
5.60
5.92
6.23
6.44
6.50
6.36
6.07
5.67
5.24
4.85
4.52
4.22
3.90
3.44
2.80
1.98
1.05
0.09
-0.84
-1.72
-2.50
-3.12
-3.44
-3.31
-2.61
-1.38
0.19
1.82
3.25
4.32
5.01
5.38
5.48
5.31
4.83
4.04
3.02
1.93
0.94
0.15
-0.43
-0.84
-1.15
-1.39
-1.57
-1.72
-1.88
-2.11
-2.41
-2.77
-3.11
-3.38
-3.57
-3.74
-3.97
-4.27
-4.58
-4.77
-4.72
-4.37
-3.74
-2.90
-1.88
-0.64
0.89
2.80
5.05
7.49
9.86
11.90
13.42
14.35
14.71
14.60
14.13
13.39
12.48
11.48
10.53
9.74
9.20
8.92
8.91
9.09
9.37
9.65
9.83
9.85
9.65
9.17
8.40
7.34
6.02
4.53
3.02
1.69
0.72
0.20
0.13
0.37
0.73
1.04
1.19
1.14
0.91
0.55
0.11
-0.37
-0.84
-1.26
-1.57
-1.71
-1.71
-1.61
-1.55
-1.65
-1.97
-2.49
-3.08
-3.60
-3.94
-4.09
-4.12
-4.14
-4.25
-4.51
-4.91
-5.39
-5.87
-6.28
-6.54
-6.63
-6.57
-6.48
-6.49
-6.71
-7.16
-7.76
-8.31
-8.58
-8.42
-7.74
-6.61
-5.16
-3.55
-1.93
-0.41
0.91
1.93
2.52
2.61
2.20
1.41
0.43
-0.55
-1.39
-2.09
-2.74
-3.43
-4.19
-4.95
-5.60
-6.06
-6.28
-6.28
-6.15
-5.95
-5.75
-5.63
-5.67
-5.94
-6.51
-7.36
-8.43
-9.56
-10.53
-11.12
-11.10
-10.35
-8.87
-6.78
-4.34
-1.87
0.33
2.03
3.12
3.62
3.60
3.13
2.28
1.16
-0.12
-1.43
-2.64
-3.67
-4.51
-5.19
-5.79
-6.35
-6.85
-7.28
-7.61
-7.86
-8.12
-8.51
-9.14
-10.10
-11.40
-12.97
-14.57
-15.86
-16.43
-15.92
-14.16
-11.26
-7.57
-3.52
0.45
4.04
7.09
9.47
11.03
11.64
11.24
9.96
8.12
6.15
4.43
3.13
2.22
1.51
0.80
0.01
-0.84
-1.65
-2.33
-2.90
-3.44
-4.10
-4.98
-6.18
-7.74
-9.65
-11.85
-14.13
-16.16
-17.52
-17.77
-16.63
-14.04
-10.20
-5.53
-0.54
4.30
8.63
12.22
14.94
16.76
17.70
17.83
17.27
16.19
14.77
13.21
11.63
10.11
8.63
7.14
5.62
4.13
2.74
1.56
0.60
-0.25
-1.22
-2.58
-4.52
-7.10
-10.17
-13.36
-16.19
-18.11
-18.63
-17.48
-14.61
-10.33
-5.13
0.37
5.62
10.25
14.06
16.98
19.02
20.17
20.46
19.96
18.83
17.28
15.53
13.76
12.01
10.26
8.43
6.51
4.61
2.87
1.48
0.46
-0.29
-1.06
-2.15
-3.81
-6.12
-8.93
-11.95
-14.71
-16.70
-17.43
-16.55
-13.90
-9.63
-4.16
1.93
8.01
13.58
18.29
21.96
24.54
26.03
26.48
25.96
24.65
22.78
20.62
18.40
16.26
14.23
12.26
10.26
8.22
6.17
4.21
2.43
0.83
-0.64
-2.15
-3.92
-6.12
-8.79
-11.77
-14.66
-16.87
-17.74
-16.80
-13.87
-9.19
-3.33
2.97
9.01
14.32
18.65
21.96
24.23
25.45
25.58
24.67
22.90
20.60
18.12
15.72
13.50
11.36
9.17
6.85
4.47
2.21
0.26
-1.30
-2.54
-3.69
-5.02
-6.81
-9.21
-12.22
-15.64
-19.02
-21.78
-23.24
-22.87
-20.41
-15.98
-10.10
-3.52
2.97
8.77
13.50
17.10
19.61
21.14
21.72
21.34
20.05
18.01
15.55
13.07
10.91
9.16
7.72
6.32
4.72
2.87
0.94
-0.84
-2.31
-3.49
-4.64
-6.13
-8.27
-11.18
-14.67
-18.28
-21.35
-23.19
-23.22
-21.16
-17.07
-11.36
-4.70
2.20
8.74
14.53
19.41
23.35
26.33
28.30
29.21
29.04
27.90
26.03
23.77
21.43
19.22
17.24
15.47
13.86
12.41
11.12
10.02
9.07
8.19
7.19
5.90
4.14
1.86
-0.80
-3.51
-5.76
-7.00
-6.84
-5.18
-2.30
1.21
4.62
7.30
8.83
9.13
8.32
6.73
4.66
2.40
0.14
-2.01
-3.96
-5.61
-6.90
-7.77
-8.28
-8.59
-8.94
-9.57
-10.62
-12.12
-13.94
-15.89
-17.78
-19.48
-20.94
-22.19
-23.33
-24.52
-25.95
-27.82
-30.23
-33.10
-36.08
-38.50
-39.60
-38.67
-35.34
-29.73
-22.40
-14.18
-5.94
1.69
8.38
14.04
18.70
22.33
24.88
26.24
26.40
25.54
23.97
22.14
20.43
19.07
18.01
17.02
15.74
13.93
11.53
8.76
5.99
3.56
1.63
0.10
-1.33
-2.99
-5.15
-7.86
-11.02
-14.33
-17.40
-19.78
-21.01
-20.72
-18.72
-15.07
-10.09
-4.29
1.76
7.57
12.77
17.19
20.71
23.30
24.88
25.46
25.06
23.87
22.17
20.30
18.56
17.11
15.95
14.95
13.92
12.76
11.51
10.30
9.27
8.49
7.81
7.02
5.86
4.22
2.25
0.28
-1.22
-1.91
-1.66
-0.62
0.84
2.30
3.41
3.98
3.96
3.42
2.42
1.05
-0.61
-2.39
-4.08
-5.44
-6.29
-6.63
-6.59
-6.44
-6.42
-6.69
-7.27
-8.06
-8.92
-9.75
-10.53
-11.31
-12.19
-13.22
-14.39
-15.60
-16.72
-17.65
-18.42
-19.19
-20.17
-21.58
-23.45
-25.71
-28.12
-30.34
-31.96
-32.53
-31.58
-28.77
-24.03
-17.69
-10.40
-3.00
3.74
9.39
13.87
17.37
20.12
22.26
23.76
24.52
24.54
23.95
23.02
22.02
21.10
20.28
19.45
18.49
17.37
16.19
15.14
14.36
13.90
13.60
13.23
12.53
11.35
9.75
7.95
6.26
4.94
4.15
3.85
3.86
3.94
3.88
3.56
2.97
2.18
1.30
0.44
-0.34
-1.07
-1.79
-2.56
-3.41
-4.32
-5.26
-6.20
-7.09
-7.94
-8.70
-9.35
-9.89
-10.37
-10.93
-11.72
-12.83
-14.29
-15.97
-17.68
-19.21
-20.45
-21.40
-22.18
-22.98
-23.97
-25.31
-27.01
-28.92
-30.68
-31.74
-31.50
-29.48
-25.54
-19.92
-13.25
-6.33
0.12
5.66
10.19
13.82
16.74
19.09
20.84
21.94
22.36
22.17
21.57
20.77
19.96
19.20
18.47
17.75
17.00
16.29
15.68
15.19
14.81
14.42
13.88
13.07
11.95
10.58
9.11
7.73
6.58
5.74
5.15
4.73
4.35
3.93
3.45
2.91
2.31
1.64
0.88
0.01
-0.95
-1.95
-2.95
-3.92
-4.85
-5.69
-6.40
-6.93
-7.31
-7.60
-7.95
-8.50
-9.32
-10.42
-11.73
-13.12
-14.54
-15.90
-17.17
-18.25
-19.07
-19.59
-19.89
-20.17
-20.72
-21.76
-23.38
-25.42
-27.47
-28.99
-29.35
-28.05
-24.87
-19.93
-13.78
-7.20
-0.99
4.25
8.37
11.51
14.00
16.07
17.70
18.68
18.80
18.04
16.62
14.98
13.50
12.35
11.46
10.56
9.43
7.98
6.30
4.58
2.99
1.57
0.26
-1.11
-2.66
-4.50
-6.64
-9.04
-11.64
-14.32
-16.89
-19.07
-20.48
-20.69
-19.40
-16.48
-12.18
-6.98
-1.53
3.58
7.97
11.56
14.43
16.71
18.41
19.41
19.60
18.94
17.62
15.93
14.24
12.72
11.36
9.97
8.35
6.39
4.19
1.96
-0.06
-1.71
-2.99
-4.03
-5.01
-6.15
-7.64
-9.62
-12.17
-15.25
-18.62
-21.83
-24.26
-25.31
-24.54
-21.78
-17.24
-11.37
-4.79
1.88
8.09
13.45
17.68
20.66
22.40
23.06
22.91
22.26
21.39
20.47
19.57
18.66
17.66
16.51
15.23
13.88
12.55
11.36
10.37
9.58
8.93
8.33
7.64
6.76
5.64
4.31
2.91
1.64
0.75
0.40
0.69
1.54
2.73
3.99
5.04
5.69
5.86
5.55
4.82
3.75
2.43
1.03
-0.30
-1.38
-2.12
-2.55
-2.83
-3.12
-3.58
-4.26
-5.12
-6.10
-7.12
-8.10
-8.98
-9.72
-10.35
-11.01
-11.85
-13.02
-14.54
-16.25
-17.93
-19.37
-20.52
-21.50
-22.55
-23.86
-25.52
-27.39
-29.19
-30.47
-30.76
-29.59
-26.69
-22.07
-16.04
-9.20
-2.24
4.24
9.82
14.34
17.75
20.14
21.58
22.21
22.23
21.87
21.39
20.98
20.76
20.68
20.63
20.43
19.96
19.20
18.26
17.33
16.57
16.07
15.73
15.36
14.79
13.93
12.86
11.74
10.70
9.74
8.77
7.62
6.18
4.51
2.80
1.28
0.11
-0.67
-1.18
-1.58
-1.97
-2.37
-2.72
-2.98
-3.14
-3.28
-3.51
-3.93
-4.54
-5.32
-6.18
-7.06
-7.90
-8.67
-9.36
-9.98
-10.57
-11.20
-11.94
-12.84
-13.87
-14.99
-16.10
-17.13
-18.07
-18.99
-19.97
-21.14
-22.58
-24.30
-26.15
-27.90
-29.18
-29.57
-28.74
-26.46
-22.73
-17.80
-12.09
-6.13
-0.43
4.63
8.83
12.09
14.43
15.89
16.51
16.38
15.64
14.49
13.18
11.93
10.87
10.03
9.34
8.70
7.99
7.13
6.09
4.87
3.53
2.11
0.66
-0.81
-2.30
-3.82
-5.38
-7.00
-8.75
-10.68
-12.85
-15.18
-17.38
-19.00
-19.51
-18.48
-15.76
-11.55
-6.36
-0.85
4.32
8.70
12.10
14.57
16.29
17.41
18.01
18.07
